SpectraSuite Data File
++++++++++++++++++++++++++++++++++++
Date: Mon Oct 07 14:52:59 GMT-05:00 2013
User: price-jones
Dark Spectrum Present: No
Reference Spectrum Present: No
Number of Sampled Component Spectra: 1
Spectrometers: USB2+H05261
Integration Time (usec): 100000 (USB2+H05261)
Spectra Averaged: 1 (USB2+H05261)
Boxcar Smoothing: 0 (USB2+H05261)
Correct for Electrical Dark: No (USB2+H05261)
Strobe/Lamp Enabled: No (USB2+H05261)
Correct for Detector Non-linearity: No (USB2+H05261)
Correct for Stray Light: No (USB2+H05261)
Number of Pixels in Processed Spectrum: 2048
>>>>>Begin Processed Spectral Data<<<<<
365.73	0.00
365.92	0.00
366.12	0.00
366.32	0.00
366.52	0.00
366.72	0.00
366.91	0.00
367.11	0.00
367.31	0.00
367.51	0.00
367.70	0.00
367.90	0.00
368.10	0.00
368.30	0.00
368.49	0.00
368.69	0.00
368.89	0.00
369.09	0.00
369.28	0.00
369.48	0.00
369.68	0.00
369.87	0.00
370.07	0.00
370.27	0.00
370.47	540.66
370.66	2979.50
370.86	3318.88
371.06	3566.98
371.25	3618.47
371.45	3211.22
371.65	3023.97
371.84	2782.90
372.04	2902.26
372.24	3227.60
372.44	3555.27
372.63	3295.47
372.83	3070.78
373.03	2789.92
373.22	2560.55
373.42	2780.56
373.62	3173.77
373.81	3431.23
374.01	3361.01
374.21	3014.61
374.40	2822.69
374.60	2857.79
374.79	3414.84
374.99	3875.93
375.19	4063.17
375.38	4252.75
375.58	3817.41
375.78	3995.29
375.97	3988.27
376.17	3939.12
376.37	4114.66
376.56	4325.31
376.76	4486.81
376.95	4580.43
377.15	4877.68
377.35	5224.08
377.54	5369.19
377.74	5575.16
377.93	5640.69
378.13	5437.06
378.33	5074.28
378.52	4746.61
378.72	4582.77
378.91	4526.60
379.11	4227.01
379.31	3999.98
379.50	4173.18
379.70	4432.97
379.89	4952.57
380.09	5088.32
380.28	5589.20
380.48	5413.66
380.68	5298.97
380.87	5088.32
381.07	4840.23
381.26	4601.49
381.46	4180.20
381.65	4039.76
381.85	3939.12
382.04	3653.58
382.24	3407.82
382.43	3393.78
382.63	3234.62
382.83	3349.31
383.02	3272.07
383.22	3349.31
383.41	3283.77
383.61	3709.75
383.80	4028.06
384.00	4638.94
384.19	5158.54
384.39	5378.55
384.58	5434.72
384.78	5270.89
384.97	5149.18
385.17	4910.44
385.36	4762.99
385.56	4634.26
385.75	4594.47
385.95	5011.09
386.14	5643.03
386.34	5486.22
386.53	5313.02
386.72	4865.97
386.92	5097.69
387.11	5275.57
387.31	5373.87
387.50	5380.89
387.70	5420.68
387.89	5128.11
388.09	5331.74
388.28	5174.92
388.48	5259.18
388.67	5755.38
388.86	6293.70
389.06	6761.81
389.25	7204.17
389.45	7112.89
389.64	7260.34
389.84	7129.27
390.03	6942.03
390.22	7108.21
390.42	7194.81
390.61	7726.11
390.81	8252.73
391.00	8219.96
391.19	8128.68
391.39	7833.77
391.58	7482.69
391.78	7117.57
391.97	6794.58
392.16	6242.21
392.36	5851.34
392.55	4753.63
392.75	3641.87
392.94	3012.27
393.13	3068.44
393.33	3681.66
393.52	4727.88
393.71	5591.54
393.91	6436.47
394.10	6993.52
394.29	7796.32
394.49	8276.13
394.68	8833.18
394.88	8791.05
395.07	9015.74
395.26	8807.44
395.46	8727.86
395.65	8318.26
395.84	7250.98
396.04	6008.16
396.23	4957.25
396.42	4060.83
396.62	3990.61
396.81	4580.43
397.00	5762.40
397.19	7375.03
397.39	9006.38
397.58	10108.77
397.77	10691.57
397.97	11047.33
398.16	11272.02
398.35	11314.15
398.55	11791.62
398.74	12112.27
398.93	12610.81
399.12	12081.85
399.32	11899.28
399.51	12224.62
399.70	12847.20
399.90	12826.14
400.09	12772.30
400.28	12746.56
400.47	12772.30
400.67	13334.03
400.86	14008.11
401.05	13804.48
401.24	13708.52
401.44	14164.92
401.63	14001.08
401.82	14291.31
402.01	14031.51
402.21	14188.33
402.40	14501.96
402.59	13865.33
402.78	13373.82
402.97	13020.40
403.17	13327.01
403.36	14312.38
403.55	14890.49
403.74	15061.35
403.93	14452.81
404.13	13245.09
404.32	13006.36
404.51	13795.12
404.70	14562.81
404.89	14827.29
405.09	14644.73
405.28	14033.85
405.47	13855.97
405.66	13736.60
405.85	13638.30
406.05	13219.35
406.24	13525.96
406.43	13961.30
406.62	14487.92
406.81	14546.43
407.00	14195.35
407.20	13542.34
407.39	13762.35
407.58	14555.79
407.77	14911.55
407.96	15667.55
408.15	15466.26
408.34	15875.85
408.54	16608.44
408.73	16737.17
408.92	16128.63
409.11	15917.98
409.30	15110.50
409.49	14258.54
409.68	13270.84
409.87	13083.59
410.07	14024.49
410.26	14656.43
410.45	15782.23
410.64	16084.16
410.83	16688.02
411.02	17228.68
411.21	17678.07
411.40	17448.69
411.59	17610.19
411.78	17584.44
411.98	17142.08
412.17	17123.36
412.36	17125.70
412.55	17092.93
412.74	16802.71
412.93	16334.60
413.12	16704.40
413.31	18361.50
413.50	18300.65
413.69	18799.18
413.88	18078.30
414.07	17315.28
414.26	17874.67
414.45	18459.81
414.64	18405.97
414.83	18459.81
415.02	17764.67
415.22	17804.46
415.41	18417.68
415.60	19213.46
415.79	19676.88
415.98	20381.38
416.17	20088.82
416.36	19761.14
416.55	19311.76
416.74	18780.46
416.93	18405.97
417.12	18253.84
417.31	18621.30
417.50	19005.15
417.69	19501.34
417.88	19417.08
418.07	19342.19
418.26	18808.54
418.45	19009.83
418.64	19714.33
418.83	20482.03
419.02	20201.16
419.21	19807.95
419.39	19133.88
419.58	17991.70
419.77	18579.17
419.96	18984.09
420.15	20144.99
420.34	20952.48
420.53	21099.93
420.72	21694.43
420.91	21610.17
421.10	21366.75
421.29	21362.07
421.48	20695.02
421.67	21411.22
421.86	21104.61
422.05	19658.16
422.24	17394.86
422.43	17462.74
422.61	19248.57
422.80	21039.08
422.99	20580.33
423.18	19819.66
423.37	19625.39
423.56	19545.81
423.75	20395.43
423.94	20322.87
424.13	19091.75
424.32	19489.64
424.50	19737.74
424.69	19587.94
424.88	19491.98
425.07	19480.28
425.26	19548.15
425.45	19295.38
425.64	19028.56
425.83	18754.71
426.01	19978.81
426.20	20308.83
426.39	20332.23
426.58	18850.67
426.77	17275.49
426.96	16655.25
427.15	17551.68
427.33	18785.14
427.52	19564.54
427.71	19571.56
427.90	19702.63
428.09	19168.99
428.28	18824.93
428.46	18253.84
428.65	17891.06
428.84	18288.95
429.03	18670.45
429.22	17879.35
429.40	16725.47
429.59	15082.41
429.78	13785.76
429.97	13284.88
430.16	13579.79
430.34	13678.09
430.53	13621.92
430.72	14094.71
430.91	15702.65
431.10	18265.54
431.28	21584.42
431.47	23494.30
431.66	23372.59
431.85	21266.11
432.03	19271.97
432.22	18675.13
432.41	19761.14
432.60	21516.54
432.79	22480.85
432.97	23147.90
433.16	23028.53
433.35	20409.47
433.54	18422.36
433.72	17607.85
433.91	18169.58
434.10	20257.34
434.28	21649.96
434.47	22890.44
434.66	22384.88
434.85	21769.32
435.03	21429.94
435.22	22015.08
435.41	23557.49
435.59	23641.75
435.78	23552.81
435.97	24507.75
436.16	24451.58
436.34	24482.00
436.53	23501.32
436.72	23814.95
436.90	22567.45
437.09	22492.55
437.28	21900.39
437.46	23026.19
437.65	22789.80
437.84	21331.64
438.02	19604.33
438.21	19772.85
438.40	20865.88
438.58	22038.48
438.77	23068.32
438.96	23007.47
439.14	23929.64
439.33	24545.20
439.52	25310.55
439.70	24367.32
439.89	23594.94
440.08	22948.95
440.26	23309.40
440.45	24011.56
440.63	25944.84
440.82	27112.77
441.01	26937.23
441.19	26373.16
441.38	26834.24
441.57	27623.00
441.75	28205.80
441.94	27927.27
442.12	27878.12
442.31	28641.14
442.50	28683.27
442.68	27992.81
442.87	27791.52
443.05	27505.98
443.24	27688.54
443.43	28753.48
443.61	28945.41
443.80	29296.49
443.98	27789.18
444.17	27674.49
444.35	29202.86
444.54	29902.68
444.73	29465.00
444.91	28266.65
445.10	27157.24
445.28	26066.55
445.47	25450.99
445.65	25509.50
445.84	26419.97
446.02	27360.86
446.21	28154.30
446.39	28140.26
446.58	28254.95
446.77	28959.45
446.95	28814.34
447.14	30005.67
447.32	30150.78
447.51	29575.01
447.69	28814.34
447.88	27833.65
448.06	28446.87
448.25	29130.31
448.43	29371.38
448.62	28648.16
448.80	28411.76
448.99	28924.34
449.17	29436.92
449.36	28943.06
449.54	30588.46
449.73	30927.84
449.91	31005.08
450.10	31690.85
450.28	32362.59
450.46	32055.98
450.65	31974.06
450.83	32023.21
451.02	30960.61
451.20	31023.80
451.39	31051.89
451.57	31019.12
451.76	30726.55
451.94	30724.21
452.13	30195.25
452.31	28767.52
452.49	27433.42
452.68	27747.05
452.86	28011.53
453.05	28095.79
453.23	28886.89
453.42	29741.19
453.60	30443.35
453.78	30808.47
453.97	30457.39
454.15	30389.52
454.34	29308.19
454.52	30047.80
454.70	29741.19
454.89	29500.11
455.07	30174.19
455.26	30340.36
455.44	31374.88
455.62	31754.05
455.81	32498.34
455.99	31831.29
456.17	31573.83
456.36	31842.99
456.54	32577.92
456.73	33092.83
456.91	33043.68
457.09	33153.69
457.28	33916.70
457.46	32348.54
457.64	32339.18
457.83	31419.35
458.01	30398.88
458.19	31622.98
458.38	31833.63
458.56	32594.30
458.74	32549.83
458.93	32013.85
459.11	31742.35
459.29	31604.25
459.48	31501.27
459.66	31409.99
459.84	32027.89
460.03	32453.87
460.21	32374.29
460.39	32943.04
460.57	33317.53
460.76	33448.60
460.94	33752.87
461.12	33172.41
461.31	33305.82
461.49	33319.87
461.67	33509.45
461.85	34569.71
462.04	34464.39
462.22	34338.00
462.40	34267.78
462.59	34061.82
462.77	33645.20
462.95	34108.63
463.13	33684.99
463.32	33528.17
463.50	33151.35
463.68	33518.81
463.86	33434.55
464.05	32582.60
464.23	32072.36
464.41	32055.98
464.59	31564.46
464.78	32996.87
464.96	32514.72
465.14	32648.13
465.32	33837.12
465.50	34220.97
465.69	34593.12
465.87	33905.00
466.05	32926.66
466.23	31297.64
466.41	31145.51
466.60	31971.72
466.78	31697.88
466.96	32397.70
467.14	32910.27
467.32	33216.88
467.51	33467.32
467.69	31945.97
467.87	32662.18
468.05	32966.45
468.23	33043.68
468.41	33134.96
468.60	33298.80
468.78	33357.32
468.96	33324.55
469.14	33521.15
469.32	34216.29
469.50	32699.62
469.69	32273.65
469.87	31578.51
470.05	32084.06
470.23	32109.81
470.41	32081.72
470.59	32577.92
470.77	33022.62
470.95	33312.84
471.14	33654.56
471.32	34132.03
471.50	35229.74
471.68	35866.37
471.86	36180.00
472.04	36271.28
472.22	36598.96
472.40	34600.14
472.58	34139.05
472.77	33949.47
472.95	34452.69
473.13	35842.96
473.31	34562.69
473.49	34848.24
473.67	35089.31
473.85	35688.49
474.03	36856.42
474.21	36669.17
474.39	37254.31
474.57	36891.52
474.75	36898.55
474.93	36718.32
475.12	35814.88
475.30	36465.55
475.48	36545.12
475.66	36921.95
475.84	36737.05
476.02	36147.23
476.20	35543.38
476.38	36446.82
476.56	37809.01
476.74	37982.21
476.92	38073.49
477.10	38520.54
477.28	39878.05
477.46	39854.64
477.64	40058.27
477.82	40034.86
478.00	40304.02
478.18	39690.80
478.36	39768.04
478.54	39583.14
478.72	40069.97
478.90	41146.62
479.08	41972.83
479.26	42586.05
479.44	42359.02
479.62	42281.78
479.80	41869.84
479.98	42396.46
480.16	43040.11
480.34	42251.35
480.52	42511.15
480.70	42871.59
480.88	43068.20
481.06	43440.34
481.24	44250.17
481.41	44809.56
481.59	45532.78
481.77	44933.60
481.95	44406.98
482.13	44619.97
482.31	44671.46
482.49	45324.47
482.67	44861.05
482.85	45432.14
483.03	46272.39
483.21	46534.53
483.39	46066.42
483.57	45469.59
483.74	45244.90
483.92	45638.11
484.10	45642.79
484.28	46370.69
484.46	47164.14
484.64	47274.14
484.82	46529.85
485.00	46028.98
485.18	45151.27
485.35	43901.43
485.53	40336.79
485.71	37202.82
485.89	37141.96
486.07	39138.44
486.25	42347.31
486.43	44596.57
486.61	45214.47
486.78	45256.60
486.96	45324.47
487.14	46946.47
487.32	48048.86
487.50	49013.16
487.68	49689.57
487.85	49961.08
488.03	50333.22
488.21	49588.93
488.39	49303.38
488.57	48275.89
488.75	48069.92
488.92	49759.79
489.10	51765.63
489.28	52804.83
489.46	53340.81
489.64	53207.40
489.81	53509.33
489.99	52907.81
490.17	53106.76
490.35	53373.58
490.53	53034.20
490.70	52542.69
490.88	52514.60
491.06	53591.25
491.24	53406.34
491.41	52332.04
491.59	50691.32
491.77	50417.48
491.95	51367.74
492.13	52479.49
492.30	53502.31
492.48	54499.37
492.66	55072.81
492.84	54721.72
493.01	54679.60
493.19	53935.30
493.37	53811.26
493.54	53371.24
493.72	54206.81
493.90	55316.22
494.08	55941.14
494.25	56282.86
494.43	56486.49
494.61	56711.18
494.79	56825.87
494.96	56589.47
495.14	56088.60
495.32	55185.15
495.49	54625.76
495.67	55711.77
495.85	56889.06
496.02	57190.99
496.20	57050.56
496.38	56603.52
496.55	56594.15
496.73	57062.26
496.91	57055.24
497.09	57598.24
497.26	57872.09
497.44	57432.07
497.62	56734.59
497.79	56170.52
497.97	54731.09
498.14	55100.89
498.32	56121.37
498.50	56879.70
498.67	57581.86
498.85	57495.26
499.03	57411.00
499.20	57659.10
499.38	57731.65
499.56	57701.23
499.73	57071.62
499.91	56774.37
500.08	56350.74
500.26	55810.07
500.44	56093.28
500.61	56790.76
500.79	56685.43
500.97	56191.58
501.14	55992.64
501.32	56062.85
501.49	56009.02
501.67	56231.37
501.84	56694.80
502.02	56987.36
502.20	57312.70
502.37	57460.15
502.55	57408.66
502.72	58171.67
502.90	58492.33
503.07	58110.82
503.25	57752.72
503.43	56797.78
503.60	56229.03
503.78	55489.42
503.95	56259.46
504.13	57502.28
504.30	58253.59
504.48	58026.56
504.65	57937.62
504.83	57815.91
505.01	58419.77
505.18	58604.67
505.36	59231.94
505.53	59341.94
505.71	59629.83
505.88	59676.64
506.06	58855.11
506.23	58534.46
506.41	58244.23
506.58	58717.02
506.76	58518.07
506.93	58520.41
507.11	58265.30
507.28	58543.82
507.46	58026.56
507.63	57368.87
507.81	57322.06
507.98	57719.95
508.16	58199.76
508.33	58548.50
508.50	58820.00
508.68	59353.65
508.85	59657.91
509.03	59632.17
509.20	59255.34
509.38	58698.30
509.55	58220.83
509.73	58461.90
509.90	58880.86
510.08	59159.38
510.25	59011.93
510.42	58824.68
510.60	58735.74
510.77	59044.69
510.95	59545.57
511.12	59533.87
511.30	59700.04
511.47	60135.38
511.64	60245.39
511.82	59657.91
511.99	58850.43
512.17	58588.29
512.34	58291.04
512.51	58340.19
512.69	58691.27
512.86	58791.92
513.04	59185.13
513.21	59040.01
513.38	58607.01
513.56	58340.19
513.73	57741.02
513.90	57946.98
514.08	58145.93
514.25	58396.37
514.43	58482.97
514.60	58583.61
514.77	59023.63
514.95	58958.09
515.12	58812.98
515.29	58915.96
515.47	59447.27
515.64	59730.47
515.81	59175.76
515.99	58749.79
516.16	57095.03
516.33	55124.30
516.51	53530.39
516.68	52917.17
516.85	52516.94
517.03	53088.03
517.20	55690.71
517.37	57961.03
517.54	58958.09
517.72	58344.87
517.89	55828.80
518.06	53607.63
518.24	54504.06
518.41	56451.38
518.58	57329.08
518.75	57801.87
518.93	57757.40
519.10	57811.23
519.27	58307.43
519.45	58560.20
519.62	59231.94
519.79	59475.35
519.96	59173.42
520.14	58621.06
520.31	58145.93
520.48	58047.63
520.65	58513.39
520.83	59388.75
521.00	59510.46
521.17	59215.55
521.34	58901.92
521.52	59309.18
521.69	59707.07
521.86	60147.09
522.03	59636.85
522.20	58621.06
522.38	57724.63
522.55	57909.53
522.72	58284.02
522.89	58403.39
523.07	58770.85
523.24	58817.66
523.41	59732.81
523.58	60126.02
523.75	60512.21
523.92	59994.95
524.10	60336.67
524.27	60095.60
524.44	59884.95
524.61	59882.61
524.78	59634.51
524.96	59711.75
525.13	59753.88
525.30	60221.98
525.47	60360.08
525.64	60236.03
525.81	59416.84
525.98	58218.49
526.16	56814.16
526.33	56327.33
526.50	55997.32
526.67	55793.69
526.84	56250.09
527.01	57111.41
527.18	58066.35
527.36	58810.64
527.53	59540.89
527.70	59803.03
527.87	59145.34
528.04	58939.37
528.21	59540.89
528.38	59950.48
528.55	60381.14
528.72	60795.42
528.89	60860.95
529.07	60577.75
529.24	59887.29
529.41	59381.73
529.58	58796.60
529.75	59206.19
529.92	59309.18
530.09	59791.33
530.26	60221.98
530.43	60369.44
530.60	60547.32
530.77	60898.40
530.94	60701.79
531.11	60339.01
531.28	59999.63
531.46	59950.48
531.63	60097.94
531.80	59723.45
531.97	59433.22
532.14	58667.87
532.31	57879.11
532.48	57155.88
532.65	57324.40
532.82	58157.63
532.99	59377.05
533.16	59592.38
533.33	60069.85
533.50	59826.43
533.67	59224.92
533.84	58738.08
534.01	59222.58
534.18	59231.94
534.35	59449.61
534.52	59241.30
534.69	59515.14
534.86	59552.59
535.03	60055.81
535.20	60540.30
535.37	60949.89
535.54	60910.10
535.71	60636.26
535.88	60130.70
536.05	59475.35
536.22	59299.81
536.38	58955.75
536.55	58499.35
536.72	58089.76
536.89	58164.65
537.06	58808.30
537.23	59695.36
537.40	59880.27
537.57	59838.14
537.74	59735.15
537.91	59447.27
538.08	59861.54
538.25	59599.40
538.42	59779.62
538.59	59405.14
538.75	58834.05
538.92	58700.64
539.09	58550.84
539.26	58623.40
539.43	58202.10
539.60	58431.47
539.77	58499.35
539.94	58225.51
540.11	57495.26
540.28	57106.73
540.44	57244.82
540.61	57532.71
540.78	58038.26
540.95	58094.44
541.12	58543.82
541.29	58805.96
541.46	59175.76
541.62	59028.31
541.79	58901.92
541.96	58211.46
542.13	58642.12
542.30	58878.52
542.47	58927.67
542.63	58508.71
542.80	58438.50
542.97	58447.86
543.14	58251.25
543.31	58466.58
543.48	58918.31
543.64	59737.49
543.81	59887.29
543.98	59772.60
544.15	59110.23
544.32	58642.12
544.48	58911.28
544.65	59215.55
544.82	59409.82
544.99	58955.75
545.16	58693.61
545.32	58791.92
545.49	59363.01
545.66	59498.76
545.83	59229.60
546.00	58897.24
546.16	58595.31
546.33	58693.61
546.50	58820.00
546.67	59206.19
546.83	58791.92
547.00	58571.91
547.17	58066.35
547.34	57443.77
547.50	57450.79
547.67	57998.48
547.84	58218.49
548.00	58543.82
548.17	58674.89
548.34	58590.63
548.51	58784.90
548.67	58670.21
548.84	58913.62
549.01	58724.04
549.18	58562.54
549.34	58560.20
549.51	58740.42
549.68	58431.47
549.84	58232.53
550.01	58225.51
550.18	58204.44
550.34	58178.70
550.51	58216.14
550.68	58426.79
550.84	57958.69
551.01	58169.33
551.18	57897.83
551.34	58195.08
551.51	58515.73
551.68	58752.13
551.84	58719.36
552.01	58494.67
552.18	58408.07
552.34	57588.88
552.51	57471.85
552.68	57535.05
552.84	57794.85
553.01	58113.16
553.18	57982.09
553.34	58176.36
553.51	58190.40
553.67	58377.64
553.84	58562.54
554.01	58241.89
554.17	58227.85
554.34	58340.19
554.51	58429.13
554.67	58796.60
554.84	58494.67
555.00	58298.06
555.17	57907.19
555.33	57881.45
555.50	58127.20
555.67	57932.94
555.83	57703.57
556.00	57588.88
556.16	57513.98
556.33	57228.44
556.50	57085.67
556.66	57141.84
556.83	57052.90
556.99	57102.05
557.16	57008.43
557.32	57301.00
557.49	57738.68
557.65	57600.58
557.82	57609.95
557.98	57354.83
558.15	56842.25
558.32	55849.86
558.48	55316.22
558.65	55538.57
558.81	55987.95
558.98	56456.06
559.14	56479.47
559.31	56140.09
559.47	56664.37
559.64	56133.07
559.80	55899.01
559.97	56067.53
560.13	56495.85
560.30	57109.07
560.46	57525.69
560.63	57829.96
560.79	58012.52
560.96	57375.89
561.12	56509.89
561.29	55491.76
561.45	55842.84
561.61	56257.12
561.78	56769.69
561.94	56392.87
562.11	56388.19
562.27	56432.66
562.44	56893.74
562.60	56811.82
562.77	56912.47
562.93	56982.68
563.10	56956.94
563.26	56442.02
563.42	56264.14
563.59	56271.16
563.75	56046.47
563.92	56381.16
564.08	56371.80
564.24	56580.11
564.41	56659.69
564.57	56530.96
564.74	56062.85
564.90	56133.07
565.07	55985.61
565.23	55515.17
565.39	54855.14
565.56	54841.09
565.72	54695.98
565.88	55077.49
566.05	55318.56
566.21	55620.49
566.38	55676.66
566.54	55681.34
566.70	56135.41
566.87	56069.87
567.03	56465.42
567.19	56530.96
567.36	56229.03
567.52	56090.94
567.68	55777.31
567.85	55070.46
568.01	55054.08
568.17	54155.32
568.34	54471.29
568.50	54660.87
568.66	54623.42
568.83	54930.03
568.99	54967.48
569.15	55224.94
569.32	55164.09
569.48	55100.89
569.64	54623.42
569.81	54478.31
569.97	54356.60
570.13	54321.49
570.30	53738.70
570.46	53495.28
570.62	52898.45
570.78	52821.21
570.95	52828.23
571.11	53986.80
571.27	54094.46
571.43	54199.79
571.60	54602.36
571.76	54740.45
571.92	55224.94
572.09	55103.23
572.25	54908.97
572.41	55175.79
572.57	54735.77
572.74	54974.50
572.90	54506.40
573.06	54504.06
573.22	54574.27
573.38	54710.02
573.55	54295.75
573.71	54850.45
573.87	54583.63
574.03	54347.24
574.20	54497.03
574.36	53949.35
574.52	53961.05
574.68	53890.83
574.84	53235.48
575.01	52949.94
575.17	53029.52
575.33	53359.53
575.49	53359.53
575.65	53301.02
575.82	53406.34
575.98	53059.94
576.14	53277.61
576.30	53769.13
576.46	53598.27
576.62	53710.61
576.79	53928.28
576.95	53502.31
577.11	53380.60
577.27	53535.07
577.43	53448.47
577.59	52685.46
577.75	52563.75
577.92	52027.77
578.08	51824.14
578.24	51908.40
578.40	52278.21
578.56	52540.35
578.72	52547.37
578.88	52802.49
579.04	52935.90
579.21	53120.80
579.37	52931.22
579.53	53024.84
579.69	52987.39
579.85	53382.94
580.01	53076.33
580.17	52774.40
580.33	52367.15
580.49	52706.52
580.65	52706.52
580.82	53219.10
580.98	53008.45
581.14	53052.92
581.30	53102.07
581.46	52938.24
581.62	53324.43
581.78	52818.87
581.94	53448.47
582.10	52952.28
582.26	53359.53
582.42	53052.92
582.58	53340.81
582.74	53062.29
582.90	53265.91
583.06	53535.07
583.22	52971.00
583.38	52830.57
583.54	53013.13
583.70	52830.57
583.86	52828.23
584.02	52978.03
584.18	52715.89
584.34	52683.12
584.50	52603.54
584.66	52626.95
584.82	51803.08
584.98	52018.41
585.14	51650.94
585.30	50742.81
585.46	50513.44
585.62	50728.77
585.78	50993.25
585.94	51239.01
586.10	51206.24
586.26	51562.00
586.42	51793.71
586.58	52072.24
586.74	51957.55
586.90	51676.69
587.06	51313.90
587.22	51662.64
587.38	51236.67
587.54	50873.88
587.70	51154.75
587.86	50569.61
588.02	50766.22
588.18	50426.84
588.34	48786.13
588.49	47044.77
588.65	45083.40
588.81	44507.63
588.97	44774.45
589.13	44832.96
589.29	44657.42
589.45	45757.47
589.61	47114.98
589.77	48282.91
589.93	48896.13
590.08	49490.63
590.24	49998.52
590.40	50064.06
590.56	49825.32
590.72	49792.56
590.88	49235.51
591.04	49324.45
591.20	49109.12
591.35	48877.41
591.51	49345.51
591.67	49130.19
591.83	49219.13
591.99	49523.40
592.15	49338.49
592.31	49720.00
592.46	49549.14
592.62	48863.36
592.78	49022.52
592.94	49193.38
593.10	48814.21
593.26	49338.49
593.41	49724.68
593.57	49497.65
593.73	48690.16
593.89	48423.34
594.05	48516.96
594.20	48266.53
594.36	47615.86
594.52	47435.64
594.68	47442.66
594.84	48126.10
594.99	48788.47
595.15	48404.62
595.31	48975.71
595.47	48832.94
595.62	48612.93
595.78	49062.31
595.94	48935.92
596.10	48893.79
596.25	48371.85
596.41	48596.54
596.57	47957.58
596.73	48652.72
596.88	48186.95
597.04	48491.22
597.20	48308.66
597.36	48301.64
597.51	47988.00
597.67	48264.19
597.83	47625.22
597.99	47693.10
598.14	47269.46
598.30	47435.64
598.46	47189.88
598.61	47538.62
598.77	47407.55
598.93	48027.79
599.09	47763.31
599.24	48219.72
599.40	47744.59
599.56	47859.27
599.71	47943.53
599.87	48006.73
600.03	47353.72
600.18	47168.82
600.34	46670.28
600.50	46630.49
600.65	46899.65
600.81	46988.60
600.97	47295.21
601.12	47182.86
601.28	47037.75
601.44	46464.32
601.59	46628.15
601.75	46244.30
601.91	46183.45
602.06	46745.18
602.22	46464.32
602.37	46239.62
602.53	46382.40
602.69	47140.73
602.84	46920.72
603.00	47538.62
603.16	47311.59
603.31	47379.46
603.47	47430.96
603.62	47318.61
603.78	47140.73
603.94	46810.71
604.09	47271.80
604.25	46810.71
604.40	46848.16
604.56	47054.13
604.71	47105.62
604.87	46518.15
605.03	46347.29
605.18	46639.86
605.34	46101.53
605.49	46349.63
605.65	46759.22
605.80	45975.14
605.96	46220.90
606.12	45317.45
606.27	45860.46
606.43	45874.50
606.58	46038.34
606.74	46361.33
606.89	45998.55
607.05	46590.70
607.20	46239.62
607.36	45722.37
607.51	45132.55
607.67	45186.38
607.82	45254.26
607.98	45265.96
608.13	44746.36
608.29	44982.76
608.44	44486.56
608.60	44369.54
608.75	44519.33
608.91	44641.04
609.06	44802.53
609.22	44587.21
609.37	44205.70
609.53	44781.47
609.68	43618.22
609.84	43744.61
609.99	43206.29
610.15	43531.62
610.30	43622.90
610.46	43969.30
610.61	44268.89
610.76	44243.15
610.92	44634.02
611.07	44645.72
611.23	44783.81
611.38	44837.64
611.54	44172.93
611.69	43728.23
611.84	42895.00
612.00	42930.11
612.15	43124.37
612.31	43115.01
612.46	43065.86
612.62	42792.01
612.77	43124.37
612.92	43030.75
613.08	42726.48
613.23	41825.37
613.39	41591.32
613.54	41404.08
613.69	41549.19
613.85	41553.87
614.00	41792.61
614.15	42672.65
614.31	42529.87
614.46	42911.38
614.62	42040.70
614.77	42162.41
614.92	42394.12
615.08	42026.66
615.23	42328.59
615.38	41949.42
615.54	41109.17
615.69	40388.28
615.84	39578.46
616.00	39388.88
616.15	39819.53
616.30	39735.27
616.46	39634.63
616.61	39761.02
616.76	39985.71
616.92	40074.65
617.07	40825.96
617.22	40774.47
617.37	40786.18
617.53	41542.17
617.68	41291.73
617.83	41567.91
617.99	41661.54
618.14	41399.40
618.29	41361.95
618.45	40678.51
618.60	40119.12
618.75	39917.84
618.90	39676.76
619.06	40505.31
619.21	40912.56
619.36	40980.44
619.51	40711.28
619.67	40762.77
619.82	40470.20
619.97	40891.50
620.12	40830.65
620.28	40701.92
620.43	40769.79
620.58	40692.55
620.73	40430.41
620.89	40027.84
621.04	39908.47
621.19	39779.74
621.34	39208.65
621.49	39189.93
621.65	39005.03
621.80	39438.03
621.95	38946.51
622.10	39033.11
622.25	39475.48
622.41	38761.61
622.56	38607.14
622.71	38064.13
622.86	38286.48
623.01	38452.66
623.16	38948.85
623.32	38497.13
623.47	38838.85
623.62	38363.72
623.77	38349.68
623.92	37504.74
624.07	37057.70
624.23	36971.10
624.38	36732.37
624.53	36865.78
624.68	37137.28
624.83	37134.94
624.98	36914.93
625.13	36631.72
625.29	36622.36
625.44	36458.52
625.59	36833.01
625.74	36802.58
625.89	36891.52
626.04	37198.13
626.19	37003.87
626.34	36898.55
626.49	36662.15
626.65	36938.33
626.80	36718.32
626.95	36767.48
627.10	36891.52
627.25	36044.25
627.40	34749.93
627.55	34513.54
627.70	33617.11
627.85	34424.60
628.00	34473.75
628.15	35314.00
628.30	35285.92
628.45	35367.84
628.60	35290.60
628.76	35475.50
628.91	35381.88
629.06	35337.41
629.21	34864.62
629.36	34876.32
629.51	34941.86
629.66	34197.57
629.81	33809.04
629.96	33773.93
630.11	34272.46
630.26	34590.78
630.41	34630.57
630.56	34714.83
630.71	34831.85
630.86	34923.13
631.01	34342.68
631.16	34150.76
631.31	33427.53
631.46	33160.71
631.61	33542.22
631.76	33855.85
631.91	33816.06
632.06	34319.28
632.21	34330.98
632.36	34188.21
632.51	34127.35
632.66	34143.74
632.81	34363.75
632.96	34256.08
633.10	34026.71
633.25	33422.85
633.40	33832.44
633.55	33783.29
633.70	33607.75
633.85	33757.55
634.00	33872.23
634.15	33963.51
634.30	33195.82
634.45	33432.21
634.60	33890.96
634.75	33961.17
634.90	33347.95
635.05	33474.34
635.19	33399.44
635.34	33378.38
635.49	33418.17
635.64	33008.58
635.79	32723.03
635.94	33046.02
636.09	33036.66
636.24	33001.55
636.39	33280.08
636.53	33120.92
636.68	33457.96
636.83	33329.23
636.98	33720.10
637.13	33301.14
637.28	33488.38
637.43	33752.87
637.57	33652.22
637.72	32540.47
637.87	33617.11
638.02	33123.26
638.17	33120.92
638.32	32933.68
638.46	32914.95
638.61	33022.62
638.76	32339.18
638.91	32158.96
639.06	32044.27
639.20	32002.14
639.35	32121.51
639.50	31515.31
639.65	31695.53
639.80	31639.36
639.94	31679.15
640.09	31665.11
640.24	32018.53
640.39	31662.77
640.54	31524.68
640.68	31470.84
640.83	31136.15
640.98	30745.28
641.13	31087.00
641.27	30838.90
641.42	30906.77
641.57	31014.44
641.72	31058.91
641.86	31049.55
642.01	30881.03
642.16	31440.42
642.31	31543.40
642.45	31754.05
642.60	31044.87
642.75	30986.35
642.90	30822.51
643.04	30756.98
643.19	30773.36
643.34	30228.02
643.48	30352.07
643.63	30635.27
643.78	30852.94
643.93	31023.80
644.07	31304.67
644.22	31419.35
644.37	30686.76
644.51	30965.29
644.66	30075.88
644.81	30120.35
644.95	30141.42
645.10	29511.81
645.25	29780.98
645.39	29532.88
645.54	29638.20
645.69	29556.28
645.83	28982.85
645.98	28854.12
646.13	29184.14
646.27	28856.46
646.42	28472.62
646.57	28877.53
646.71	28996.90
646.86	28830.72
647.00	28776.89
647.15	28371.97
647.30	28098.13
647.44	27957.70
647.59	28187.07
647.74	28105.15
647.88	28011.53
648.03	28116.86
648.17	28091.11
648.32	28308.78
648.47	28575.60
648.61	28489.00
648.76	27927.27
648.90	27309.37
649.05	26904.46
649.20	26309.96
649.34	26197.62
649.49	26324.01
649.63	27091.70
649.78	27349.16
649.92	28130.90
650.07	28720.71
650.21	28079.41
650.36	28648.16
650.51	28273.67
650.65	28643.48
650.80	28404.74
650.94	28261.97
651.09	27828.97
651.23	27056.59
651.38	26560.40
651.52	26735.94
651.67	27002.76
651.81	27201.71
651.96	27438.10
652.10	27623.00
652.25	27215.75
652.39	27648.75
652.54	27417.04
652.68	27601.94
652.83	27314.05
652.97	27641.73
653.12	27178.30
653.26	27157.24
653.41	27625.34
653.55	27786.84
653.70	27494.27
653.84	27426.40
653.99	27056.59
654.13	27033.19
654.27	26581.46
654.42	26197.62
654.56	26122.72
654.71	26497.20
654.85	25832.49
655.00	25577.37
655.14	25282.47
655.29	24636.48
655.43	24453.92
655.57	23229.82
655.72	21558.67
655.86	20327.55
656.01	19419.42
656.15	19660.50
656.30	20671.61
656.44	22230.41
656.58	23227.48
656.73	23683.88
656.87	24046.66
657.01	24496.05
657.16	24996.92
657.30	25179.48
657.45	25305.87
657.59	25577.37
657.73	25645.25
657.88	25710.78
658.02	25975.27
658.16	25607.80
658.31	25221.61
658.45	25418.22
658.60	25125.65
658.74	25322.26
658.88	24489.03
659.03	24812.02
659.17	24580.31
659.31	25132.67
659.46	24847.13
659.60	25188.85
659.74	25249.70
659.89	25310.55
660.03	25455.67
660.17	25408.86
660.32	25563.33
660.46	25226.29
660.60	25076.50
660.74	24657.54
660.89	24826.06
661.03	24512.43
661.17	24854.15
661.32	24608.39
661.46	24861.17
661.60	25046.07
661.74	25067.14
661.89	24863.51
662.03	24868.19
662.17	24594.35
662.31	24318.17
662.46	24638.82
662.60	24655.20
662.74	24442.21
662.88	24166.03
663.03	24046.66
663.17	23824.31
663.31	23461.53
663.45	23997.51
663.60	23880.49
663.74	23721.33
663.88	23791.55
664.02	23709.63
664.17	23793.89
664.31	23421.74
664.45	23924.96
664.59	23632.39
664.73	23922.62
664.88	23976.45
665.02	23606.64
665.16	23735.37
665.30	24020.92
665.44	23730.69
665.59	23346.84
665.73	23285.99
665.87	22829.59
666.01	22663.41
666.15	22583.83
666.29	22796.82
666.44	22796.82
666.58	22796.82
666.72	22544.04
666.86	22890.44
667.00	22838.95
667.14	22906.82
667.28	22693.83
667.43	22607.23
667.57	22232.75
667.71	22375.52
667.85	22553.40
667.99	22745.33
668.13	22436.38
668.27	22492.55
668.41	22270.20
668.56	22459.78
668.70	22583.83
668.84	22181.26
668.98	22092.32
669.12	22038.48
669.26	22260.84
669.40	21771.66
669.54	21769.32
669.68	22066.57
669.82	21944.86
669.96	21420.58
670.10	21352.71
670.25	21420.58
670.39	21303.56
670.53	21223.98
670.67	21142.06
670.81	21043.76
670.95	21170.15
671.09	20650.55
671.23	20760.55
671.37	20847.15
671.51	20659.91
671.65	20577.99
671.79	20627.14
671.93	20996.95
672.07	20952.48
672.21	20610.76
672.35	20585.01
672.49	20542.88
672.63	20493.73
672.77	20353.30
672.91	20306.49
673.05	20297.13
673.19	20559.27
673.33	20304.15
673.47	20388.41
673.61	20594.37
673.75	20191.80
673.89	20191.80
674.03	20283.08
674.17	19962.43
674.31	19833.70
674.45	19838.38
674.59	19513.05
674.73	19414.74
674.87	19679.22
675.01	19276.65
675.15	19489.64
675.29	19740.08
675.43	19183.03
675.56	19407.72
675.70	19435.81
675.84	19176.01
675.98	18611.94
676.12	19005.15
676.26	19208.78
676.40	19140.90
676.54	18766.42
676.68	18927.91
676.82	18705.56
676.96	18747.69
677.10	18508.96
677.23	18515.98
677.37	18647.05
677.51	18497.25
677.65	18471.51
677.79	17928.50
677.93	18059.57
678.07	18155.54
678.21	17879.35
678.34	17797.43
678.48	17764.67
678.62	17575.08
678.76	17748.28
678.90	17886.37
679.04	17689.77
679.18	17535.29
679.31	17792.75
679.45	17474.44
679.59	17184.21
679.73	17654.66
679.87	17488.48
680.00	17106.98
680.14	17069.53
680.28	16872.92
680.42	16837.81
680.56	16877.60
680.70	16430.56
680.83	16779.30
680.97	16552.27
681.11	16826.11
681.25	16421.20
681.39	16362.69
681.52	16526.52
681.66	16578.01
681.80	16383.75
681.94	16414.18
682.07	16500.78
682.21	16292.47
682.35	15866.49
682.49	15873.51
682.62	15850.11
682.76	15660.52
682.90	15866.49
683.04	15861.81
683.17	15880.53
683.31	15667.55
683.45	15358.60
683.59	15201.78
683.72	15220.50
683.86	15066.03
684.00	14941.98
684.13	15000.49
684.27	14665.80
684.41	15239.23
684.55	14951.34
684.68	15005.17
684.82	15166.67
684.96	14569.83
685.09	14530.05
685.23	14310.04
685.37	14415.36
685.50	14504.30
685.64	14338.12
685.78	14024.49
685.91	14218.75
686.05	14143.86
686.19	13909.80
686.32	12720.81
686.46	11421.81
686.60	9975.36
686.73	9352.78
686.87	9006.38
687.01	8720.84
687.14	8847.22
687.28	9320.01
687.42	9533.00
687.55	10153.24
687.69	10820.30
687.82	11199.46
687.96	11709.70
688.10	11461.60
688.23	11255.64
688.37	11084.78
688.50	10923.28
688.64	10724.33
688.78	10548.79
688.91	10953.71
689.05	10773.49
689.18	10417.72
689.32	10572.20
689.46	10796.89
689.59	10700.93
689.73	10789.87
689.86	10878.81
690.00	10913.92
690.13	10796.89
690.27	10995.84
690.41	11026.26
690.54	10902.22
690.68	11080.10
690.81	11119.89
690.95	11061.37
691.08	10899.87
691.22	10785.19
691.35	10902.22
691.49	10953.71
691.62	11122.23
691.76	11229.89
691.89	10710.29
692.03	10766.46
692.16	10979.45
692.30	10626.03
692.43	10633.05
692.57	10759.44
692.70	10630.71
692.84	10499.64
692.97	10455.17
693.11	10480.92
693.24	10368.57
693.38	10349.85
693.51	10303.04
693.65	10059.62
693.78	10019.83
693.92	9942.60
694.05	9914.51
694.19	9940.26
694.32	9912.17
694.45	9916.85
694.59	9619.60
694.72	9902.81
694.86	9844.29
694.99	9638.33
695.13	9785.78
695.26	9687.48
695.39	9745.99
695.53	9783.44
695.66	9448.74
695.80	9577.47
695.93	9364.48
696.07	9586.83
696.20	9888.76
696.33	9689.82
696.47	9886.42
696.60	9998.77
696.73	9795.14
696.87	9783.44
697.00	9809.19
697.14	9652.37
697.27	9720.24
697.40	9474.49
697.54	9308.31
697.67	9060.21
697.80	9001.70
697.94	8879.99
698.07	9015.74
698.21	9008.72
698.34	8905.74
698.47	8496.14
698.61	8690.41
698.74	8716.16
698.87	8470.40
699.01	8280.82
699.14	8538.27
699.27	8669.34
699.40	8681.05
699.54	8461.04
699.67	8365.07
699.80	8341.67
699.94	8397.84
700.07	8262.09
700.20	8037.40
700.34	7857.18
700.47	7651.21
700.60	7911.01
700.73	7861.86
700.87	7775.26
701.00	7824.41
701.13	7763.56
701.26	7534.18
701.40	7595.04
701.53	7499.08
701.66	7573.97
701.79	7782.28
701.93	7793.98
702.06	7744.83
702.19	7620.78
702.32	7536.52
702.46	7672.28
702.59	7297.79
702.72	7541.21
702.85	7683.98
702.99	7506.10
703.12	7515.46
703.25	7651.21
703.38	7573.97
703.51	7396.09
703.65	7152.68
703.78	7190.13
703.91	7295.45
704.04	7377.37
704.17	7339.92
704.31	7363.33
704.44	7431.20
704.57	7232.26
704.70	7215.87
704.83	7037.99
704.96	6759.47
705.10	6970.12
705.23	6876.49
>>>>>End Processed Spectral Data<<<<<
