SpectraSuite Data File
++++++++++++++++++++++++++++++++++++
Date: Mon Oct 07 14:53:04 GMT-05:00 2013
User: price-jones
Dark Spectrum Present: No
Reference Spectrum Present: No
Number of Sampled Component Spectra: 1
Spectrometers: USB2+H05261
Integration Time (usec): 100000 (USB2+H05261)
Spectra Averaged: 1 (USB2+H05261)
Boxcar Smoothing: 0 (USB2+H05261)
Correct for Electrical Dark: No (USB2+H05261)
Strobe/Lamp Enabled: No (USB2+H05261)
Correct for Detector Non-linearity: No (USB2+H05261)
Correct for Stray Light: No (USB2+H05261)
Number of Pixels in Processed Spectrum: 2048
>>>>>Begin Processed Spectral Data<<<<<
365.73	0.00
365.92	0.00
366.12	0.00
366.32	0.00
366.52	0.00
366.72	0.00
366.91	0.00
367.11	0.00
367.31	0.00
367.51	0.00
367.70	0.00
367.90	0.00
368.10	0.00
368.30	0.00
368.49	0.00
368.69	0.00
368.89	0.00
369.09	0.00
369.28	0.00
369.48	0.00
369.68	0.00
369.87	0.00
370.07	0.00
370.27	0.00
370.47	411.93
370.66	2417.77
370.86	2839.07
371.06	3075.46
371.25	2986.52
371.45	2761.83
371.65	2576.93
371.84	2366.28
372.04	2600.34
372.24	2731.41
372.44	2942.05
372.63	3000.57
372.83	2689.28
373.03	2342.88
373.22	2183.72
373.42	2324.15
373.62	2745.45
373.81	2881.20
374.01	2733.75
374.21	2609.70
374.40	2354.58
374.60	2518.42
374.79	2815.66
374.99	3267.39
375.19	3653.58
375.38	3559.95
375.58	3304.84
375.78	3234.62
375.97	3403.14
376.17	3524.85
376.37	3468.67
376.56	3473.36
376.76	3962.53
376.95	3990.61
377.15	4327.65
377.35	4533.62
377.54	4643.62
377.74	4847.25
377.93	4730.22
378.13	4758.31
378.33	4521.92
378.52	4198.92
378.72	3985.93
378.91	3815.07
379.11	3740.18
379.31	3599.74
379.50	3665.28
379.70	4009.34
379.89	4252.75
380.09	4641.28
380.28	4688.09
380.48	4800.44
380.68	4510.21
380.87	4489.15
381.07	4203.60
381.26	3887.63
381.46	3599.74
381.65	3492.08
381.85	3297.81
382.04	3314.20
382.24	3096.53
382.43	2841.41
382.63	2661.19
382.83	2876.52
383.02	2913.97
383.22	2789.92
383.41	2874.18
383.61	2974.82
383.80	3581.02
384.00	4088.92
384.19	4507.87
384.39	4748.95
384.58	4676.39
384.78	4315.95
384.97	4514.89
385.17	4339.35
385.36	4142.75
385.56	3936.78
385.75	3946.14
385.95	4329.99
386.14	4847.25
386.34	4844.91
386.53	4454.04
386.72	4320.63
386.92	4227.01
387.11	4531.28
387.31	4849.59
387.50	4702.14
387.70	4440.00
387.89	4617.88
388.09	4683.41
388.28	4547.66
388.48	4695.11
388.67	5050.88
388.86	5486.22
389.06	5914.53
389.25	6061.99
389.45	6211.78
389.64	6057.31
389.84	5963.68
390.03	5933.26
390.22	6108.80
390.42	6228.17
390.61	6654.14
390.81	7199.49
391.00	7227.57
391.19	7183.10
391.39	6974.80
391.58	6544.14
391.78	5998.79
391.97	5926.24
392.16	5593.88
392.36	5109.39
392.55	3999.98
392.75	3269.73
392.94	2628.42
393.13	2616.72
393.33	3049.72
393.52	4086.58
393.71	4856.61
393.91	5575.16
394.10	6008.16
394.29	6494.99
394.49	7089.48
394.68	7634.83
394.88	7571.63
395.07	7990.59
395.26	8004.63
395.46	7501.42
395.65	7192.47
395.84	6204.76
396.04	5226.42
396.23	4269.14
396.42	3517.83
396.62	3370.37
396.81	4056.15
397.00	5210.03
397.19	6448.18
397.39	7716.75
397.58	8643.60
397.77	9111.71
397.97	9334.06
398.16	9533.00
398.35	9755.35
398.55	10167.29
398.74	10527.73
398.93	10743.06
399.12	10464.54
399.32	10321.76
399.51	10551.14
399.70	11037.97
399.90	11084.78
400.09	10867.11
400.28	11019.24
400.47	11143.29
400.67	11524.80
400.86	11786.94
401.05	12016.31
401.24	11889.92
401.44	12173.13
401.63	12301.86
401.82	12215.26
402.01	12170.79
402.21	12423.56
402.40	12233.98
402.59	12081.85
402.78	11389.05
402.97	11059.03
403.17	11587.99
403.36	12243.34
403.55	12772.30
403.74	13071.89
403.93	12702.09
404.13	11445.22
404.32	11403.09
404.51	11559.91
404.70	12666.98
404.89	12629.53
405.09	12362.71
405.28	12079.50
405.47	12273.77
405.66	12060.78
405.85	11751.83
406.05	11531.82
406.24	11655.87
406.43	11960.14
406.62	12559.31
406.81	12587.40
407.00	12278.45
407.20	11955.46
407.39	12028.01
407.58	12564.00
407.77	12919.76
407.96	13310.63
408.15	13357.44
408.34	13624.26
408.54	14352.16
408.73	14307.69
408.92	14066.62
409.11	13540.00
409.30	13013.38
409.49	12147.38
409.68	11480.33
409.87	11052.01
410.07	11782.26
410.26	12915.08
410.45	13710.86
410.64	13937.89
410.83	14382.59
411.02	14707.93
411.21	15098.80
411.40	14792.19
411.59	15302.42
411.78	14911.55
411.98	14752.40
412.17	15096.46
412.36	14511.32
412.55	14899.85
412.74	14445.79
412.93	14174.28
413.12	14265.57
413.31	15836.06
413.50	15754.15
413.69	16217.57
413.88	15239.23
414.07	15246.25
414.26	15218.16
414.45	15838.41
414.64	15800.96
414.83	15754.15
415.02	15473.28
415.22	15480.30
415.41	15709.68
415.60	16554.61
415.79	16966.54
415.98	17642.96
416.17	17413.59
416.36	16765.26
416.55	16798.02
416.74	16149.70
416.93	15587.97
417.12	15569.24
417.31	15665.21
417.50	16182.46
417.69	16833.13
417.88	16493.76
418.07	16688.02
418.26	16109.91
418.45	16355.66
418.64	17099.95
418.83	17624.23
419.02	17172.51
419.21	17188.89
419.39	16348.64
419.58	15681.59
419.77	15609.03
419.96	16634.19
420.15	17362.09
420.34	17774.03
420.53	18469.17
420.72	18696.20
420.91	18787.48
421.10	18068.94
421.29	18228.09
421.48	17589.13
421.67	18696.20
421.86	17837.22
422.05	16428.22
422.24	14750.06
422.43	14787.50
422.61	16493.76
422.80	17905.10
422.99	17750.62
423.18	17198.26
423.37	16561.63
423.56	16872.92
423.75	17298.90
423.94	17429.97
424.13	16498.44
424.32	16514.82
424.50	16730.15
424.69	16723.13
424.88	16568.65
425.07	16613.12
425.26	16636.53
425.45	16489.07
425.64	15709.68
425.83	16102.89
426.01	17247.41
426.20	17364.43
426.39	17472.10
426.58	16032.67
426.77	14909.21
426.96	14389.61
427.15	14939.64
427.33	16133.31
427.52	16744.19
427.71	16631.85
427.90	16681.00
428.09	16456.31
428.28	16053.73
428.46	15456.90
428.65	15356.25
428.84	15733.08
429.03	16201.19
429.22	15150.29
429.40	14532.39
429.59	12966.57
429.78	11552.88
429.97	11384.37
430.16	11667.57
430.34	11810.34
430.53	11992.90
430.72	11798.64
430.91	13469.78
431.10	15861.81
431.28	18310.01
431.47	19754.12
431.66	20191.80
431.85	18256.18
432.03	16868.24
432.22	16063.10
432.41	16842.50
432.60	18686.84
432.79	19564.54
432.97	19606.67
433.16	19508.37
433.35	17434.65
433.54	15793.94
433.72	14803.89
433.91	15513.07
434.10	17226.34
434.28	18429.38
434.47	19269.63
434.66	19030.90
434.85	18787.48
435.03	18492.57
435.22	19105.79
435.41	20348.62
435.59	20271.38
435.78	20847.15
435.97	21324.62
436.16	21053.12
436.34	20601.40
436.53	20332.23
436.72	20205.84
436.90	18890.46
437.09	19255.59
437.28	18733.65
437.46	19702.63
437.65	19417.08
437.84	17923.82
438.02	16727.81
438.21	16734.83
438.40	17858.29
438.58	19215.80
438.77	19417.08
438.96	20093.50
439.14	20636.50
439.33	20973.54
439.52	21563.36
439.70	20959.50
439.89	20180.10
440.08	19709.65
440.26	19875.83
440.45	20400.11
440.63	21923.80
440.82	23140.88
441.01	22675.11
441.19	22548.72
441.38	22951.29
441.57	23812.61
441.75	24210.50
441.94	24224.54
442.12	23714.31
442.31	24149.65
442.50	24247.95
442.68	24315.83
442.87	23686.22
443.05	23431.10
443.24	23852.40
443.43	24285.40
443.61	24669.25
443.80	24980.54
443.98	23648.77
444.17	23566.85
444.35	24826.06
444.54	25486.09
444.73	25207.57
444.91	24016.24
445.10	22747.67
445.28	22328.71
445.47	21797.41
445.65	22036.14
445.84	22300.62
446.02	23428.76
446.21	23506.00
446.39	23726.01
446.58	24121.56
446.77	24503.07
446.95	24819.04
447.14	25521.20
447.32	25766.96
447.51	25268.42
447.69	24203.48
447.88	24004.53
448.06	24542.86
448.25	24907.98
448.43	24912.66
448.62	24613.07
448.80	24507.75
448.99	24507.75
449.17	25060.12
449.36	24868.19
449.54	25607.80
449.73	26019.74
449.91	26375.50
450.10	27047.23
450.28	27283.62
450.46	27274.26
450.65	27569.17
450.83	27468.53
451.02	26497.20
451.20	26785.09
451.39	26508.91
451.57	26394.22
451.76	26230.38
451.94	25923.77
452.13	25521.20
452.31	24318.17
452.49	23594.94
452.68	23522.38
452.86	23779.84
453.05	24032.62
453.23	24875.21
453.42	25195.87
453.60	25841.85
453.78	25979.95
453.97	26026.76
454.15	25738.87
454.34	25502.48
454.52	25441.62
454.70	25050.75
454.89	25308.21
455.07	25343.32
455.26	25776.32
455.44	26649.34
455.62	26808.50
455.81	27318.73
455.99	26969.99
456.17	26728.92
456.36	26562.74
456.54	27690.88
456.73	27690.88
456.91	28332.18
457.09	27737.69
457.28	28294.74
457.46	27225.11
457.64	27283.62
457.83	26553.38
458.01	25645.25
458.19	26778.07
458.38	26848.29
458.56	27714.28
458.74	27491.93
458.93	27218.09
459.11	27218.09
459.29	26991.06
459.48	26686.79
459.66	26745.30
459.84	27527.04
460.03	27796.20
460.21	27367.88
460.39	28404.74
460.57	28259.63
460.76	28629.43
460.94	28540.49
461.12	27896.85
461.31	28252.61
461.49	28240.90
461.67	28283.03
461.85	29502.45
462.04	28907.96
462.22	29500.11
462.40	28741.78
462.59	28606.03
462.77	28795.61
462.95	28893.91
463.13	28470.28
463.32	28266.65
463.50	28032.60
463.68	28386.02
463.86	28191.75
464.05	28027.92
464.23	26836.58
464.41	26911.48
464.59	26883.39
464.78	27957.70
464.96	27728.33
465.14	27744.71
465.32	28561.56
465.50	29450.96
465.69	29401.81
465.87	28643.48
466.05	27695.56
466.23	26614.23
466.41	26197.62
466.60	26651.68
466.78	26845.94
466.96	27672.15
467.14	27999.83
467.32	28346.23
467.51	28325.16
467.69	27047.23
467.87	27903.87
468.05	28105.15
468.23	28041.96
468.41	28048.98
468.60	28163.67
468.78	28147.28
468.96	27941.32
469.14	28547.51
469.32	28987.53
469.50	27388.95
469.69	28037.28
469.87	27510.66
470.05	27037.87
470.23	27459.16
470.41	27370.22
470.59	27805.56
470.77	27943.66
470.95	28348.57
471.14	29043.71
471.32	28926.68
471.50	30127.38
471.68	30120.35
471.86	30932.52
472.04	30756.98
472.22	30834.22
472.40	29567.99
472.58	29134.99
472.77	28968.81
472.95	29252.02
473.13	30338.02
473.31	29450.96
473.49	29762.25
473.67	30195.25
473.85	30347.39
474.03	31175.94
474.21	31103.38
474.39	31463.82
474.57	31522.34
474.75	31250.83
474.93	31356.16
475.12	30579.10
475.30	30452.71
475.48	30778.04
475.66	31559.78
475.84	31070.61
476.02	30756.98
476.20	30363.77
476.38	30969.97
476.56	31981.08
476.74	32423.44
476.92	32566.21
477.10	32858.78
477.28	33972.88
477.46	33692.01
477.64	34237.36
477.82	34220.97
478.00	34452.69
478.18	33853.51
478.36	33605.41
478.54	33984.58
478.72	34085.22
478.90	34710.14
479.08	36102.76
479.26	35983.40
479.44	36313.41
479.62	35779.77
479.80	36385.97
479.98	35849.99
480.16	36397.67
480.34	36140.21
480.52	36341.50
480.70	36870.46
480.88	36500.65
481.06	37223.88
481.24	37514.11
481.41	38211.59
481.59	38815.44
481.77	38366.06
481.95	38190.52
482.13	37998.60
482.31	38253.72
482.49	38335.63
482.67	38515.86
482.85	38806.08
483.03	39068.22
483.21	39262.49
483.39	39796.13
483.57	38883.32
483.74	38553.30
483.92	39192.27
484.10	39189.93
484.28	40051.25
484.46	40367.22
484.64	40907.88
484.82	40226.79
485.00	39318.66
485.18	38234.99
485.35	37113.87
485.53	34525.24
485.71	31697.88
485.89	31353.82
486.07	33310.50
486.25	35711.89
486.43	37804.33
486.61	38356.70
486.78	38541.60
486.96	38714.80
487.14	39885.07
487.32	41897.93
487.50	42464.34
487.68	43353.74
487.85	43749.29
488.03	43445.02
488.21	43110.33
488.39	42237.31
488.57	42087.51
488.75	41233.22
488.92	42967.55
489.10	45567.89
489.28	46466.66
489.46	47924.81
489.64	47571.39
489.81	47878.00
489.99	47196.90
490.17	47028.38
490.35	47985.66
490.53	46887.95
490.70	46794.33
490.88	46752.20
491.06	47681.39
491.24	47758.63
491.41	45820.67
491.59	44144.84
491.77	43241.40
491.95	44734.66
492.13	46181.11
492.30	47810.12
492.48	49029.54
492.66	49315.09
492.84	49301.04
493.01	49340.83
493.19	48442.07
493.37	48013.75
493.54	47414.57
493.72	48760.38
493.90	50003.20
494.08	51058.79
494.25	50972.19
494.43	51000.27
494.61	51674.35
494.79	51948.19
494.96	51576.04
495.14	50892.61
495.32	49584.25
495.49	48809.53
495.67	50417.48
495.85	52062.88
496.02	52243.10
496.20	52413.96
496.38	51817.12
496.55	51510.51
496.73	52006.70
496.91	52072.24
497.09	52657.37
497.26	53343.15
497.44	52638.65
497.62	51470.72
497.79	50841.12
497.97	49530.42
498.14	49853.41
498.32	51250.71
498.50	52023.09
498.67	52905.47
498.85	52781.42
499.03	53041.22
499.20	53324.43
499.38	53179.31
499.56	53003.77
499.73	52224.37
499.91	51618.17
500.08	51040.06
500.26	50625.79
500.44	51110.28
500.61	51856.91
500.79	51480.08
500.97	51136.02
501.14	51313.90
501.32	50848.14
501.49	50827.07
501.67	51159.43
501.84	51730.52
502.02	52437.36
502.20	52626.95
502.37	52573.11
502.55	52811.85
502.72	53352.51
502.90	53872.11
503.07	53450.81
503.25	53097.39
503.43	52287.57
503.60	51412.21
503.78	50365.99
503.95	51145.39
504.13	52980.37
504.30	53551.46
504.48	53172.29
504.65	53092.71
504.83	53118.46
505.01	53965.73
505.18	54068.72
505.36	54721.72
505.53	54834.07
505.71	55014.29
505.88	55054.08
506.06	54218.51
506.23	54122.55
506.41	53792.53
506.58	54197.44
506.76	53918.92
506.93	53624.01
507.11	53439.11
507.28	53968.07
507.46	53265.91
507.63	52865.68
507.81	52423.32
507.98	52779.08
508.16	53642.74
508.33	54267.66
508.50	54487.67
508.68	54688.96
508.85	54962.80
509.03	55227.28
509.20	55152.38
509.38	54045.31
509.55	53408.68
509.73	53652.10
509.90	54258.30
510.08	54635.13
510.25	54513.42
510.42	54281.70
510.60	54096.80
510.77	54475.97
510.95	55049.40
511.12	55236.64
511.30	55435.59
511.47	55533.89
511.64	55735.18
511.82	55320.90
511.99	54408.09
512.17	53736.36
512.34	53485.92
512.51	53855.73
512.69	53841.68
512.86	54066.38
513.04	54679.60
513.21	54482.99
513.38	54274.68
513.56	53680.19
513.73	53010.79
513.90	53277.61
514.08	53221.44
514.25	53574.86
514.43	53979.78
514.60	54124.89
514.77	54136.59
514.95	54190.42
515.12	54223.19
515.29	54241.92
515.47	54925.35
515.64	55262.39
515.81	54770.88
515.99	53982.12
516.16	51971.60
516.33	49270.62
516.51	47782.04
516.68	46609.43
516.85	46178.77
517.03	47182.86
517.20	50281.73
517.37	53329.11
517.54	54141.27
517.72	53441.45
517.89	50447.91
518.06	47964.60
518.24	48671.44
518.41	51351.35
518.58	52750.99
518.75	52868.02
518.93	53052.92
519.10	53073.99
519.27	53495.28
519.45	53942.33
519.62	54553.21
519.79	54937.05
519.96	54939.39
520.14	54277.02
520.31	53256.55
520.48	53214.42
520.65	53790.19
520.83	54911.31
521.00	55121.96
521.17	54520.44
521.34	54363.62
521.52	54630.44
521.69	55402.82
521.86	55767.94
522.03	55246.00
522.20	53965.73
522.38	52800.15
522.55	53027.18
522.72	53694.23
522.89	53783.17
523.07	54162.34
523.24	54239.57
523.41	55433.25
523.58	55838.16
523.75	56198.60
523.92	55938.80
524.10	55709.43
524.27	55880.29
524.44	55737.52
524.61	55346.65
524.78	55451.97
524.96	55285.79
525.13	55334.95
525.30	55526.87
525.47	55737.52
525.64	55641.56
525.81	55145.36
525.98	53565.50
526.16	51760.95
526.33	51206.24
526.50	50759.20
526.67	50120.23
526.84	51325.61
527.01	52200.97
527.18	53270.59
527.36	54237.23
527.53	55112.59
527.70	55400.48
527.87	54941.74
528.04	54499.37
528.21	55023.65
528.38	55711.77
528.55	56161.15
528.72	56435.00
528.89	56622.24
529.07	56226.69
529.24	55767.94
529.41	54965.14
529.58	54382.35
529.75	54326.17
529.92	54890.24
530.09	55590.06
530.26	55796.03
530.43	56236.05
530.60	56161.15
530.77	56350.74
530.94	56357.76
531.11	55861.57
531.28	55707.09
531.46	55463.67
531.63	55618.15
531.80	55229.62
531.97	54707.68
532.14	54291.07
532.31	52718.23
532.48	52317.99
532.65	52477.15
532.82	53616.99
532.99	54436.18
533.16	54803.64
533.33	55428.57
533.50	55220.26
533.67	54656.19
533.84	54391.71
534.01	54571.93
534.18	54841.09
534.35	55068.12
534.52	54784.92
534.69	55011.95
534.86	55344.31
535.03	55746.88
535.20	56226.69
535.37	56275.84
535.54	56633.94
535.71	56130.73
535.88	55845.18
536.05	55096.21
536.22	54780.24
536.38	54281.70
536.55	53654.44
536.72	53160.59
536.89	53146.54
537.06	54117.87
537.23	55112.59
537.40	55458.99
537.57	55545.59
537.74	55056.42
537.91	54981.52
538.08	54913.65
538.25	55093.87
538.42	55348.99
538.59	54885.56
538.75	54389.37
538.92	54216.17
539.09	53869.77
539.26	53801.89
539.43	53724.66
539.60	53806.58
539.77	54227.87
539.94	53867.43
540.11	52472.47
540.28	52332.04
540.44	52215.01
540.61	52493.54
540.78	53055.26
540.95	53504.65
541.12	53998.50
541.29	54251.28
541.46	54672.57
541.62	54595.34
541.79	54344.90
541.96	53640.40
542.13	53546.78
542.30	54169.36
542.47	54213.83
542.63	54115.53
542.80	53825.30
542.97	53914.24
543.14	53801.89
543.31	53748.06
543.48	54213.83
543.64	55213.24
543.81	55517.51
543.98	55395.80
544.15	54656.19
544.32	53855.73
544.48	53895.52
544.65	54583.63
544.82	54822.37
544.99	54398.73
545.16	54066.38
545.32	54085.10
545.49	54742.79
545.66	55086.85
545.83	54403.41
546.00	54122.55
546.16	53883.81
546.33	54340.22
546.50	54162.34
546.67	54674.91
546.83	54195.10
547.00	54026.59
547.17	53174.63
547.34	52633.97
547.50	52886.74
547.67	53277.61
547.84	53258.89
548.00	53776.15
548.17	54202.13
548.34	54064.03
548.51	53982.12
548.67	54096.80
548.84	54019.56
549.01	53996.16
549.18	54045.31
549.34	54241.92
549.51	53989.14
549.68	53736.36
549.84	53581.88
550.01	53591.25
550.18	53291.66
550.34	53659.12
550.51	53574.86
550.68	53647.42
550.84	53200.38
551.01	53523.37
551.18	53317.40
551.34	53656.78
551.51	53979.78
551.68	54265.32
551.84	54122.55
552.01	54019.56
552.18	53621.67
552.34	52748.65
552.51	52823.55
552.68	52420.98
552.84	52900.79
553.01	53181.65
553.18	52966.32
553.34	53352.51
553.51	53464.86
553.67	53694.23
553.84	53731.68
554.01	53717.64
554.17	53584.22
554.34	53834.66
554.51	53748.06
554.67	54260.64
554.84	53652.10
555.00	53539.75
555.17	53378.26
555.33	53078.67
555.50	53497.62
555.67	53691.89
555.83	52942.92
556.00	52755.68
556.16	52446.72
556.33	52121.39
556.50	51854.57
556.66	52020.75
556.83	51639.24
556.99	52034.79
557.16	52048.83
557.32	52570.77
557.49	52884.40
557.65	52767.38
557.82	52694.82
557.98	52430.34
558.15	51737.54
558.32	50838.78
558.48	49851.07
558.65	50298.11
558.81	50763.88
558.98	51098.58
559.14	51292.84
559.31	51536.26
559.47	51370.08
559.64	50932.40
559.80	50726.43
559.97	50735.79
560.13	51388.80
560.30	52123.73
560.46	52938.24
560.63	53235.48
560.79	53181.65
560.96	52655.03
561.12	51468.38
561.29	50239.60
561.45	50506.42
561.61	51374.76
561.78	51746.90
561.94	51484.76
562.11	51276.46
562.27	51096.24
562.44	51789.03
562.60	51779.67
562.77	52416.30
562.93	51985.64
563.10	51924.78
563.26	51370.08
563.42	51292.84
563.59	51070.49
563.75	51210.92
563.92	50693.66
564.08	50976.87
564.24	51489.45
564.41	51372.42
564.57	51688.39
564.74	51173.47
564.90	51058.79
565.07	50553.23
565.23	50120.23
565.39	49584.25
565.56	49434.45
565.72	48999.12
565.88	49776.17
566.05	49787.88
566.21	50068.74
566.38	50087.46
566.54	50185.77
566.70	50670.26
566.87	51044.74
567.03	51180.49
567.19	51089.21
567.36	50913.67
567.52	50883.25
567.68	50520.46
567.85	49572.55
568.01	49329.13
568.17	48725.27
568.34	49001.46
568.50	48767.40
568.66	48912.52
568.83	49635.74
568.99	49368.92
569.15	49897.88
569.32	49986.82
569.48	49432.11
569.64	49090.40
569.81	48928.90
569.97	48715.91
570.13	48797.83
570.30	48034.81
570.46	47388.83
570.62	46614.11
570.78	46941.78
570.95	47185.20
571.11	48083.97
571.27	48399.94
571.43	48765.06
571.60	49052.95
571.76	48624.63
571.92	49097.42
572.09	49624.04
572.25	49837.03
572.41	49478.92
572.57	49212.10
572.74	49265.94
572.90	48837.62
573.06	48762.72
573.22	48837.62
573.38	49317.43
573.55	48832.94
573.71	49268.28
573.87	48704.21
574.03	48509.94
574.20	48650.38
574.36	48491.22
574.52	48027.79
574.68	47775.02
574.84	47590.11
575.01	46770.93
575.17	46988.60
575.33	47276.48
575.49	47454.36
575.65	47384.15
575.82	47529.26
575.98	46768.58
576.14	47555.00
576.30	47679.05
576.46	47655.65
576.62	47931.83
576.79	47983.32
576.95	47655.65
577.11	47274.14
577.27	47239.03
577.43	47325.63
577.59	46873.91
577.75	46665.60
577.92	45855.78
578.08	45558.53
578.24	45528.10
578.40	46138.98
578.56	46452.61
578.72	46216.22
578.88	46436.23
579.04	46834.12
579.21	46824.76
579.37	47000.30
579.53	47068.17
579.69	46934.76
579.85	47143.07
580.01	46787.31
580.17	45832.37
580.33	46167.07
580.49	46651.56
580.65	47014.34
580.82	47330.31
580.98	47154.77
581.14	46693.69
581.30	47157.11
581.46	46712.41
581.62	47110.30
581.78	47096.26
581.94	47271.80
582.10	47028.38
582.26	47550.32
582.42	47112.64
582.58	47180.52
582.74	47365.42
582.90	47297.55
583.06	47428.62
583.22	46894.97
583.38	46698.37
583.54	46555.60
583.70	46611.77
583.86	46693.69
584.02	46279.41
584.18	46457.29
584.34	46756.88
584.50	46670.28
584.66	46415.16
584.82	45713.00
584.98	45965.78
585.14	44828.28
585.30	44634.02
585.46	44156.55
585.62	43852.28
585.78	44538.05
585.94	44807.22
586.10	45570.23
586.26	45256.60
586.42	45471.93
586.58	45771.52
586.74	45832.37
586.90	45024.89
587.06	45343.20
587.22	45481.29
587.38	44587.21
587.54	44683.17
587.70	44535.71
587.86	44299.32
588.02	44039.52
588.18	43749.29
588.34	42302.84
588.49	39852.30
588.65	37963.49
588.81	37984.55
588.97	38548.62
589.13	38054.77
589.29	37696.67
589.45	39056.52
589.61	40201.04
589.77	41116.19
589.93	42314.55
590.08	42717.12
590.24	42892.66
590.40	43199.27
590.56	43288.21
590.72	42939.47
590.88	42368.38
591.04	42298.16
591.20	42146.03
591.35	42038.36
591.51	43009.68
591.67	42099.22
591.83	42852.87
591.99	42209.22
592.15	42918.40
592.31	42890.32
592.46	42567.32
592.62	42532.22
592.78	41914.31
592.94	42480.72
593.10	42066.45
593.26	43007.34
593.41	42934.79
593.57	42749.88
593.73	41970.49
593.89	41755.16
594.05	41914.31
594.20	41177.04
594.36	40828.30
594.52	40549.78
594.68	40865.75
594.84	41404.08
594.99	42000.91
595.15	41397.06
595.31	41698.98
595.47	41457.91
595.62	41785.58
595.78	42227.95
595.94	42029.00
596.10	42131.98
596.25	41813.67
596.41	41853.46
596.57	41453.23
596.73	41968.15
596.88	41654.51
597.04	41584.30
597.20	41160.66
597.36	40767.45
597.51	41160.66
597.67	41158.32
597.83	40748.73
597.99	40964.06
598.14	40526.38
598.30	40322.75
598.46	40304.02
598.61	40580.21
598.77	40547.44
598.93	40863.41
599.09	41478.97
599.24	41427.48
599.40	41006.19
599.56	40896.18
599.71	41212.15
599.87	40807.24
600.03	40797.88
600.18	40568.51
600.34	40079.33
600.50	39665.06
600.65	40229.13
600.81	40371.90
600.97	40074.65
601.12	40444.46
601.28	39791.45
601.44	39758.68
601.59	39253.12
601.75	39082.27
601.91	39505.90
602.06	39522.29
602.22	39775.06
602.37	39585.48
602.53	39966.99
602.69	40226.79
602.84	40346.15
603.00	40524.04
603.16	40671.49
603.31	40353.18
603.47	40624.68
603.62	40402.33
603.78	40341.47
603.94	39899.11
604.09	39758.68
604.25	39821.87
604.40	39988.05
604.56	39978.69
604.71	40292.32
604.87	39910.82
605.03	39791.45
605.18	39206.31
605.34	39765.70
605.49	39512.92
605.65	39627.61
605.80	39269.51
605.96	39086.95
606.12	38934.81
606.27	39077.58
606.43	39178.23
606.58	39524.63
606.74	39468.45
606.89	39274.19
607.05	39714.21
607.20	39185.25
607.36	39051.84
607.51	38347.34
607.67	38272.44
607.82	38410.53
607.98	38438.62
608.13	38370.74
608.29	38089.88
608.44	38029.02
608.60	37469.64
608.75	37619.43
608.91	38265.42
609.06	38181.16
609.22	38249.03
609.37	37834.76
609.53	37549.21
609.68	37453.25
609.84	36514.70
609.99	36549.81
610.15	36910.25
610.30	37069.40
610.46	37193.45
610.61	37778.59
610.76	38057.11
610.92	37876.89
611.07	38569.69
611.23	38258.40
611.38	38075.84
611.54	37593.68
611.69	36701.94
611.84	36217.45
612.00	36065.31
612.15	36142.55
612.31	36526.40
612.46	36484.27
612.62	36563.85
612.77	36982.80
612.92	36723.01
613.08	36322.77
613.23	35526.99
613.39	34871.64
613.54	34876.32
613.69	35484.86
613.85	35260.17
614.00	35707.21
614.15	36215.11
614.31	35730.62
614.46	35990.42
614.62	35576.14
614.77	35625.29
614.92	36292.35
615.08	35903.82
615.23	35889.77
615.38	35356.13
615.54	34623.54
615.69	34136.71
615.84	33277.74
616.00	33127.94
616.15	33359.66
616.30	33883.94
616.46	33514.13
616.61	33659.24
616.76	34190.55
616.92	34349.70
617.07	34361.40
617.22	34235.02
617.37	34691.42
617.53	35248.47
617.68	34930.16
617.83	35014.41
617.99	34988.67
618.14	35318.68
618.29	35140.80
618.45	34656.31
618.60	33982.24
618.75	33790.31
618.90	33764.57
619.06	34178.84
619.21	34417.58
619.36	34677.38
619.51	34663.33
619.67	34125.01
619.82	34550.99
619.97	34382.47
620.12	34178.84
620.28	34167.14
620.43	34555.67
620.58	34513.54
620.73	34162.46
620.89	33881.60
621.04	33291.78
621.19	33415.83
621.34	33247.31
621.49	33024.96
621.65	32921.98
621.80	33013.26
621.95	32985.17
622.10	32980.49
622.25	32886.87
622.41	32933.68
622.56	32638.77
622.71	32620.05
622.86	32095.77
623.01	32240.88
623.16	32554.51
623.32	32142.58
623.47	32432.80
623.62	32243.22
623.77	32041.93
623.92	31700.22
624.07	31171.25
624.23	31150.19
624.38	31304.67
624.53	31428.71
624.68	31316.37
624.83	31168.91
624.98	30768.68
625.13	31082.31
625.29	31061.25
625.44	31147.85
625.59	30995.71
625.74	31138.49
625.89	30930.18
626.04	30911.46
626.19	31447.44
626.34	31082.31
626.49	30726.55
626.65	31143.17
626.80	31072.95
626.95	30944.22
627.10	30621.23
627.25	30160.14
627.40	29237.97
627.55	29076.48
627.70	28540.49
627.85	28629.43
628.00	29284.78
628.15	29579.69
628.30	29558.63
628.45	29949.50
628.60	29722.46
628.76	29731.83
628.91	29839.49
629.06	29869.92
629.21	29343.30
629.36	29268.40
629.51	29139.67
629.66	28992.22
629.81	28435.17
629.96	28547.51
630.11	29130.31
630.26	29551.60
630.41	29296.49
630.56	29434.58
630.71	29317.55
630.86	29291.80
631.01	28638.80
631.16	28374.31
631.31	28217.50
631.46	27936.63
631.61	27988.13
631.76	28336.87
631.91	28297.08
632.06	28835.40
632.21	29055.41
632.36	28954.77
632.51	28875.19
632.66	28933.70
632.81	28889.23
632.96	28900.94
633.10	28404.74
633.25	28315.80
633.40	28086.43
633.55	28409.42
633.70	28577.94
633.85	28631.77
634.00	28278.35
634.15	28231.54
634.30	28208.14
634.45	28741.78
634.60	28493.68
634.75	28189.41
634.90	28474.96
635.05	28086.43
635.19	28346.23
635.34	28561.56
635.49	28168.35
635.64	27505.98
635.79	27557.47
635.94	27402.99
636.09	27861.74
636.24	27805.56
636.39	28006.85
636.53	28205.80
636.68	28100.47
636.83	27681.52
636.98	28404.74
637.13	28421.13
637.28	28587.30
637.43	28166.01
637.57	27840.67
637.72	27903.87
637.87	27714.28
638.02	27611.30
638.17	28140.26
638.32	27646.41
638.46	27826.63
638.61	27545.76
638.76	27250.86
638.91	27087.02
639.06	27094.04
639.20	26932.54
639.35	26724.24
639.50	26761.69
639.65	26316.98
639.80	26920.84
639.94	26740.62
640.09	26771.05
640.24	26476.14
640.39	26707.85
640.54	26494.86
640.68	26286.56
640.83	25947.18
640.98	26120.38
641.13	25891.01
641.27	26590.83
641.42	26326.35
641.57	26600.19
641.72	25841.85
641.86	25855.90
642.01	25928.45
642.16	26218.68
642.31	26146.12
642.45	26583.80
642.60	26040.80
642.75	25886.32
642.90	26555.72
643.04	26094.63
643.19	25731.85
643.34	25717.81
643.48	25542.27
643.63	25340.98
643.78	25771.64
643.93	26024.42
644.07	26199.96
644.22	26363.79
644.37	25680.36
644.51	25820.79
644.66	25392.47
644.81	25638.23
644.95	25671.00
645.10	25144.38
645.25	24783.93
645.39	25202.89
645.54	24636.48
645.69	24664.57
645.83	24582.65
645.98	24596.69
646.13	24664.57
646.27	24741.80
646.42	24283.06
646.57	24322.85
646.71	24189.44
646.86	23931.98
647.00	24144.97
647.15	24025.60
647.30	23782.18
647.44	23922.62
647.59	23854.74
647.74	23381.95
647.88	23683.88
648.03	23388.97
648.17	23571.54
648.32	23988.15
648.47	24004.53
648.61	23426.42
648.76	23826.65
648.90	22878.74
649.05	22141.47
649.20	21874.65
649.34	21755.28
649.49	22361.48
649.63	22616.60
649.78	23229.82
649.92	23190.03
650.07	23796.23
650.21	23435.78
650.36	23962.40
650.51	23789.20
650.65	24182.42
650.80	23763.46
650.94	23543.45
651.09	23110.45
651.23	22366.16
651.38	22466.80
651.52	22586.17
651.67	22618.94
651.81	22845.97
651.96	22902.14
652.10	23026.19
652.25	23112.79
652.39	23056.62
652.54	23056.62
652.68	22925.55
652.83	22951.29
652.97	23091.73
653.12	23213.43
653.26	23098.75
653.41	23267.27
653.55	23063.64
653.70	23108.11
653.84	23175.98
653.99	22373.18
654.13	22602.55
654.27	22075.93
654.42	21743.58
654.56	21790.39
654.71	22125.08
654.85	21549.31
655.00	21472.07
655.14	21120.99
655.29	20809.70
655.43	20786.30
655.57	19674.54
655.72	18064.25
655.86	16980.59
656.01	16327.58
656.15	16353.32
656.30	17514.23
656.44	18200.01
656.58	19183.03
656.73	19882.85
656.87	20058.39
657.01	20336.91
657.16	21018.01
657.30	21462.71
657.45	21390.16
657.59	21689.74
657.73	21530.59
657.88	21415.90
658.02	21589.10
658.16	21385.47
658.31	21720.17
658.45	21331.64
658.60	21350.37
658.74	21532.93
658.88	21261.43
659.03	20795.66
659.17	20599.05
659.31	20905.66
659.46	20814.38
659.60	21106.95
659.74	21076.52
659.89	21511.86
660.03	21294.19
660.17	21172.49
660.32	21273.13
660.46	21200.57
660.60	21156.10
660.74	20830.77
660.89	20622.46
661.03	20751.19
661.17	20851.83
661.32	20917.37
661.46	21252.06
661.60	21032.05
661.74	20950.14
661.89	20772.25
662.03	20727.78
662.17	20648.21
662.31	20982.90
662.46	20971.20
662.60	20629.48
662.74	20463.30
662.88	20084.14
663.03	19990.52
663.17	20177.76
663.31	20013.92
663.45	20301.81
663.60	20273.72
663.74	19747.10
663.88	20276.06
664.02	19814.98
664.17	20147.33
664.31	19932.00
664.45	19747.10
664.59	20198.82
664.73	20074.77
664.88	20166.06
665.02	19840.72
665.16	19946.05
665.30	19468.58
665.44	19707.31
665.59	19557.52
665.73	19611.35
665.87	19140.90
666.01	19241.54
666.15	19164.31
666.29	18981.74
666.44	19300.06
666.58	19213.46
666.72	19061.32
666.86	19489.64
667.00	19328.14
667.14	19178.35
667.28	19094.09
667.43	18902.17
667.57	18855.36
667.71	18991.11
667.85	18787.48
667.99	18831.95
668.13	18768.76
668.27	18874.08
668.41	19236.86
668.56	18740.67
668.70	18916.21
668.84	18937.27
668.98	18485.55
669.12	18621.30
669.26	18675.13
669.40	18565.13
669.54	18637.69
669.68	18312.35
669.82	18260.86
669.96	18263.20
670.10	18176.60
670.25	17935.53
670.39	17872.33
670.53	17755.30
670.67	17748.28
670.81	17745.94
670.95	17888.71
671.09	17544.66
671.23	17460.40
671.37	17135.06
671.51	17418.27
671.65	17221.66
671.79	17298.90
671.93	17118.68
672.07	17764.67
672.21	17390.18
672.35	17263.79
672.49	17256.77
672.63	17284.86
672.77	17233.36
672.91	17102.29
673.05	17153.79
673.19	17039.10
673.33	17111.66
673.47	17411.25
673.61	17001.65
673.75	17067.19
673.89	17025.06
674.03	17013.35
674.17	16833.13
674.31	16889.31
674.45	16659.93
674.59	16460.99
674.73	16334.60
674.87	16442.26
675.01	16559.29
675.15	16308.85
675.29	16697.38
675.43	16315.87
675.56	16266.72
675.70	16266.72
675.84	16100.55
675.98	16030.33
676.12	16264.38
676.26	16248.00
676.40	15749.46
676.54	15807.98
676.68	15716.70
676.82	15538.82
676.96	16016.29
677.10	15688.61
677.23	15630.10
677.37	15358.60
677.51	15412.43
677.65	15281.36
677.79	15246.25
677.93	15250.93
678.07	15433.49
678.21	15005.17
678.34	14946.66
678.48	14941.98
678.62	14881.13
678.76	15091.77
678.90	15059.01
679.04	14960.70
679.18	15044.96
679.31	14560.47
679.45	14836.66
679.59	14490.26
679.73	14656.43
679.87	14600.26
680.00	14618.99
680.14	14214.07
680.28	14319.40
680.42	14134.50
680.56	14064.28
680.70	14132.15
680.83	14185.99
680.97	13544.68
681.11	13825.54
681.25	13919.17
681.39	13783.41
681.52	13942.57
681.66	13965.98
681.80	13811.50
681.94	13797.46
682.07	13837.25
682.21	13572.77
682.35	13614.90
682.49	13371.48
682.62	13331.69
682.76	13273.18
682.90	13413.61
683.04	13350.42
683.17	13338.71
683.31	13193.60
683.45	13020.40
683.59	12985.29
683.72	12779.32
683.86	12484.42
684.00	12304.20
684.13	12568.68
684.27	12517.18
684.41	12453.99
684.55	12683.36
684.68	12531.23
684.82	12561.66
684.96	12533.57
685.09	12355.69
685.23	12013.97
685.37	12042.06
685.50	12126.32
685.64	11819.71
685.78	11796.30
685.91	11758.85
686.05	11920.35
686.19	11712.04
686.32	10705.61
686.46	9479.17
686.60	8477.42
686.73	7911.01
686.87	7480.35
687.01	7368.01
687.14	7576.31
687.28	7768.24
687.42	8308.90
687.55	8475.08
687.69	9109.36
687.82	9460.45
687.96	9891.10
688.10	9844.29
688.23	9633.64
688.37	9273.20
688.50	9371.50
688.64	9263.84
688.78	9041.49
688.91	9015.74
689.05	9114.05
689.18	8903.40
689.32	8830.84
689.46	8772.33
689.59	9132.77
689.73	9160.86
689.86	9057.87
690.00	9193.62
690.13	9235.75
690.27	9132.77
690.41	9263.84
690.54	9460.45
690.68	9228.73
690.81	9423.00
690.95	9320.01
691.08	9327.03
691.22	9331.72
691.35	9067.24
691.49	9188.94
691.62	9198.31
691.76	9378.53
691.89	9364.48
692.03	9259.16
692.16	9191.28
692.30	9137.45
692.43	9107.02
692.57	9128.09
692.70	8730.20
692.84	8872.97
692.97	8769.99
693.11	8753.60
693.24	8753.60
693.38	8667.00
693.51	8271.45
693.65	8472.74
693.78	8299.54
693.92	8348.69
694.05	8418.91
694.19	8395.50
694.32	8411.89
694.45	8547.64
694.59	8402.52
694.72	8334.65
694.86	8285.50
694.99	8397.84
695.13	8173.15
695.26	8035.06
695.39	8095.91
695.53	8070.17
695.66	7913.35
695.80	7815.05
695.93	7880.58
696.07	8189.53
696.20	8124.00
696.33	8184.85
696.47	8404.86
696.60	8189.53
696.73	8374.44
696.87	8287.84
697.00	8269.11
697.14	8044.42
697.27	7850.16
697.40	7761.22
697.54	7674.62
697.67	7768.24
697.80	7672.28
697.94	7618.44
698.07	7726.11
698.21	7632.49
698.34	7552.91
698.47	7400.77
698.61	7243.96
698.74	7316.51
698.87	7061.40
699.01	7169.06
699.14	7091.82
699.27	7194.81
699.40	7433.54
699.54	7218.21
699.67	7155.02
699.80	7023.95
699.94	7321.20
700.07	7054.37
700.20	6832.02
700.34	6813.30
700.47	6712.66
700.60	6773.51
700.73	6642.44
700.87	6759.47
701.00	6654.14
701.13	6609.67
701.26	6513.71
701.40	6483.28
701.53	6525.41
701.66	6530.09
701.79	6333.49
701.93	6729.04
702.06	6530.09
702.19	6567.54
702.32	6567.54
702.46	6373.28
702.59	6230.51
702.72	6232.85
702.85	6263.27
702.99	6399.02
703.12	6396.68
703.25	6258.59
703.38	6321.79
703.51	6286.68
703.65	6232.85
703.78	6003.47
703.91	6125.18
704.04	6282.00
704.17	6108.80
704.31	6090.07
704.44	5998.79
704.57	6139.23
704.70	6118.16
704.83	5961.34
704.96	5916.87
705.10	5933.26
705.23	5748.36
>>>>>End Processed Spectral Data<<<<<
