SpectraSuite Data File
++++++++++++++++++++++++++++++++++++
Date: Mon Oct 07 14:53:18 GMT-05:00 2013
User: price-jones
Dark Spectrum Present: No
Reference Spectrum Present: No
Number of Sampled Component Spectra: 1
Spectrometers: USB2+H05261
Integration Time (usec): 100000 (USB2+H05261)
Spectra Averaged: 1 (USB2+H05261)
Boxcar Smoothing: 0 (USB2+H05261)
Correct for Electrical Dark: No (USB2+H05261)
Strobe/Lamp Enabled: No (USB2+H05261)
Correct for Detector Non-linearity: No (USB2+H05261)
Correct for Stray Light: No (USB2+H05261)
Number of Pixels in Processed Spectrum: 2048
>>>>>Begin Processed Spectral Data<<<<<
365.73	0.00
365.92	0.00
366.12	0.00
366.32	0.00
366.52	0.00
366.72	0.00
366.91	0.00
367.11	0.00
367.31	0.00
367.51	0.00
367.70	0.00
367.90	0.00
368.10	0.00
368.30	0.00
368.49	0.00
368.69	0.00
368.89	0.00
369.09	0.00
369.28	0.00
369.48	0.00
369.68	0.00
369.87	0.00
370.07	0.00
370.27	0.00
370.47	706.84
370.66	3311.86
370.86	3735.50
371.06	4117.00
371.25	4037.42
371.45	3665.28
371.65	3253.34
371.84	3131.64
372.04	3311.86
372.24	3791.67
372.44	3892.31
372.63	3817.41
372.83	3620.81
373.03	3178.45
373.22	2832.05
373.42	3091.85
373.62	3508.46
373.81	3845.50
374.01	3702.73
374.21	3417.18
374.40	3225.26
374.60	3318.88
374.79	3644.21
374.99	4362.76
375.19	4755.97
375.38	4638.94
375.58	4547.66
375.78	4334.67
375.97	4507.87
376.17	4512.55
376.37	4571.07
376.56	4713.84
376.76	4922.15
376.95	5378.55
377.15	5598.56
377.35	5860.70
377.54	6162.63
377.74	6136.88
377.93	6249.23
378.13	6146.25
378.33	5750.70
378.52	5385.57
378.72	5074.28
378.91	5053.22
379.11	4952.57
379.31	4758.31
379.50	4662.35
379.70	5111.73
379.89	5631.33
380.09	5926.24
380.28	6120.50
380.48	6083.05
380.68	6036.24
380.87	6005.81
381.07	5394.93
381.26	5177.26
381.46	4566.39
381.65	4650.64
381.85	4454.04
382.04	4339.35
382.24	4014.02
382.43	3726.13
382.63	3740.18
382.83	3796.35
383.02	3695.71
383.22	3775.28
383.41	3716.77
383.61	3960.19
383.80	4416.59
384.00	5050.88
384.19	5746.02
384.39	6174.33
384.58	6120.50
384.78	5994.11
384.97	5989.43
385.17	5661.76
385.36	5228.76
385.56	4880.02
385.75	5268.55
385.95	5738.99
386.14	6342.85
386.34	6321.79
386.53	5949.64
386.72	5631.33
386.92	5790.49
387.11	6057.31
387.31	6216.46
387.50	6162.63
387.70	5811.55
387.89	5874.74
388.09	5879.43
388.28	6047.94
388.48	6188.38
388.67	6469.24
388.86	7239.28
389.06	7782.28
389.25	8119.32
389.45	8145.06
389.64	8152.09
389.84	7985.91
390.03	7981.23
390.22	7948.46
390.42	8360.39
390.61	8629.56
390.81	9359.80
391.00	9383.21
391.19	9437.04
391.39	8929.14
391.58	8444.65
391.78	8126.34
391.97	7843.14
392.16	7267.36
392.36	6609.67
392.55	5359.83
392.75	4304.25
392.94	3337.60
393.13	3346.97
393.33	4131.05
393.52	5336.42
393.71	6345.19
393.91	7164.38
394.10	7801.01
394.29	8561.68
394.49	9263.84
394.68	9919.19
394.88	10057.28
395.07	10204.74
395.26	10347.51
395.46	9935.57
395.65	9493.21
395.84	7974.21
396.04	6841.39
396.23	5411.32
396.42	4664.69
396.62	4592.13
396.81	5416.00
397.00	6897.56
397.19	8444.65
397.39	10090.05
397.58	11548.20
397.77	12226.96
397.97	12545.27
398.16	12510.16
398.35	13107.00
398.55	13317.65
398.74	13954.27
398.93	14134.50
399.12	13767.03
399.32	13460.42
399.51	13867.67
399.70	14869.42
399.90	14614.30
400.09	14593.24
400.28	14310.04
400.47	14504.30
400.67	15424.13
400.86	15997.56
401.05	15522.43
401.24	15887.56
401.44	15910.96
401.63	15854.79
401.82	15901.60
402.01	15927.35
402.21	16355.66
402.40	16184.80
402.59	16032.67
402.78	14979.43
402.97	14717.29
403.17	15400.72
403.36	16439.92
403.55	16868.24
403.74	17411.25
403.93	16208.21
404.13	15061.35
404.32	14731.33
404.51	15335.19
404.70	16882.28
404.89	16819.09
405.09	16545.25
405.28	15967.13
405.47	15894.58
405.66	16098.20
405.85	15360.94
406.05	15229.87
406.24	15269.66
406.43	15674.57
406.62	16355.66
406.81	16423.54
407.00	15927.35
407.20	15625.42
407.39	15782.23
407.58	16512.48
407.77	17209.96
407.96	17881.69
408.15	17858.29
408.34	17816.16
408.54	18853.02
408.73	18789.82
408.92	18845.99
409.11	18195.32
409.30	17298.90
409.49	16011.60
409.68	15143.27
409.87	14782.82
410.07	15885.22
410.26	17008.67
410.45	17926.16
410.64	18675.13
410.83	18988.77
411.02	19477.94
411.21	20421.17
411.40	19796.25
411.59	19943.70
411.78	19700.29
411.98	19667.52
412.17	20042.01
412.36	19658.16
412.55	19737.74
412.74	19220.48
412.93	18881.10
413.12	19073.03
413.31	20641.18
413.50	21130.36
413.69	21144.40
413.88	20458.62
414.07	19927.32
414.26	20659.91
414.45	20711.40
414.64	20856.51
414.83	21273.13
415.02	20657.57
415.22	20582.67
415.41	21071.84
415.60	21806.77
415.79	22780.43
415.98	23281.31
416.17	23033.21
416.36	22693.83
416.55	22473.82
416.74	21727.19
416.93	20769.91
417.12	20725.44
417.31	21308.24
417.50	21434.63
417.69	22560.42
417.88	22099.34
418.07	22214.02
418.26	21551.65
418.45	21912.10
418.64	22679.79
418.83	23400.68
419.02	23374.93
419.21	23150.24
419.39	21724.85
419.58	21041.42
419.77	20805.02
419.96	21759.96
420.15	23065.98
420.34	23594.94
420.53	25046.07
420.72	24903.30
420.91	24816.70
421.10	24474.98
421.29	24435.19
421.48	23463.87
421.67	24676.27
421.86	23894.53
422.05	22160.19
422.24	19997.54
422.43	19960.09
422.61	21774.00
422.80	23763.46
422.99	23983.47
423.18	22731.28
423.37	22312.33
423.56	22628.30
423.75	23051.94
423.94	23426.42
424.13	22125.08
424.32	22221.05
424.50	22473.82
424.69	22211.68
424.88	21984.65
425.07	22267.86
425.26	22211.68
425.45	22045.51
425.64	21359.73
425.83	21198.23
426.01	22707.88
426.20	23087.04
426.39	23335.14
426.58	21434.63
426.77	20063.07
426.96	19147.92
427.15	20081.80
427.33	21888.69
427.52	22441.06
427.71	22307.65
427.90	22274.88
428.09	22087.64
428.28	21507.18
428.46	20849.49
428.65	20299.47
428.84	21193.55
429.03	21659.32
429.22	20053.71
429.40	19176.01
429.59	17415.93
429.78	15225.18
429.97	15648.82
430.16	15831.38
430.34	15819.68
430.53	15955.43
430.72	16004.58
430.91	17858.29
431.10	21144.40
431.28	24744.14
431.47	27075.32
431.66	27096.38
431.85	24423.49
432.03	22717.24
432.22	21635.91
432.41	22778.09
432.60	25046.07
432.79	25671.00
432.97	26560.40
433.16	25972.92
433.35	23866.44
433.54	21324.62
433.72	20168.40
433.91	20795.66
434.10	23159.60
434.28	24430.51
434.47	26239.75
434.66	25743.55
434.85	24992.24
435.03	24868.19
435.22	25450.99
435.41	26916.16
435.59	27307.03
435.78	27056.59
435.97	28191.75
436.16	28271.33
436.34	28130.90
436.53	27332.78
436.72	27484.91
436.90	25879.30
437.09	25956.54
437.28	25549.29
437.46	26242.09
437.65	26068.89
437.84	24250.29
438.02	22328.71
438.21	22506.59
438.40	23318.76
438.58	25802.07
438.77	26373.16
438.96	26759.34
439.14	27552.79
439.33	28486.66
439.52	28568.58
439.70	27922.59
439.89	27482.57
440.08	26499.55
440.26	26630.62
440.45	27632.36
440.63	29366.70
440.82	31349.14
441.01	30174.19
441.19	30270.15
441.38	30876.35
441.57	31943.63
441.75	31983.42
441.94	32247.90
442.12	32165.98
442.31	33071.77
442.50	32643.45
442.68	32666.86
442.87	32233.86
443.05	31206.36
443.24	32126.19
443.43	32680.90
443.61	33443.91
443.80	33574.98
443.98	31782.13
444.17	32210.45
444.35	33633.50
444.54	34281.83
444.73	33495.41
444.91	32327.48
445.10	31480.21
445.28	29687.36
445.47	29226.27
445.65	29542.24
445.84	30651.66
446.02	31452.12
446.21	31936.61
446.39	31936.61
446.58	32357.91
446.77	32870.48
446.95	33380.72
447.14	33858.19
447.32	34616.52
447.51	33729.46
447.69	32821.33
447.88	32690.26
448.06	33109.22
448.25	33436.89
448.43	33755.21
448.62	33153.69
448.80	32781.54
448.99	33043.68
449.17	33603.07
449.36	33706.05
449.54	34445.66
449.73	35454.44
449.91	35761.05
450.10	36643.43
450.28	36577.89
450.46	36659.81
450.65	36746.41
450.83	36701.94
451.02	35889.77
451.20	35622.95
451.39	35482.52
451.57	35365.49
451.76	35747.00
451.94	35133.78
452.13	34719.51
452.31	32666.86
452.49	31562.12
452.68	31700.22
452.86	32533.45
453.05	32224.50
453.23	33390.08
453.42	34293.53
453.60	34988.67
453.78	35271.87
453.97	34749.93
454.15	34810.79
454.34	34300.55
454.52	34382.47
454.70	33825.42
454.89	33989.26
455.07	34127.35
455.26	34904.41
455.44	36177.66
455.62	36400.01
455.81	36538.10
455.99	36364.90
456.17	36552.15
456.36	36264.26
456.54	37050.68
456.73	37422.83
456.91	38043.07
457.09	38054.77
457.28	38993.32
457.46	37095.15
457.64	37139.62
457.83	35683.81
458.01	34885.68
458.19	36212.77
458.38	36301.71
458.56	37493.04
458.74	37399.42
458.93	36935.99
459.11	36252.56
459.29	35894.46
459.48	36589.59
459.66	36259.58
459.84	37090.47
460.03	37387.72
460.21	37031.96
460.39	38117.96
460.57	37844.12
460.76	38260.74
460.94	38562.67
461.12	37916.68
461.31	38485.43
461.49	38078.18
461.67	38302.87
461.85	39328.02
462.04	38724.16
462.22	39772.72
462.40	38932.47
462.59	38754.59
462.77	39220.36
462.95	39356.11
463.13	38309.89
463.32	38181.16
463.50	38014.98
463.68	38340.32
463.86	38522.88
464.05	37542.19
464.23	36421.08
464.41	36676.19
464.59	36339.16
464.78	37949.45
464.96	37626.45
465.14	37614.75
465.32	38663.31
465.50	39218.02
465.69	39756.34
465.87	38579.05
466.05	37907.32
466.23	36236.17
466.41	35339.75
466.60	36472.57
466.78	36261.92
466.96	36896.20
467.14	37479.00
467.32	38405.85
467.51	38354.36
467.69	36914.93
467.87	37064.72
468.05	38139.03
468.23	37635.81
468.41	37968.17
468.60	37970.51
468.78	38244.35
468.96	37944.76
469.14	38529.90
469.32	39112.69
469.50	37277.71
469.69	37722.41
469.87	37038.98
470.05	36999.19
470.23	37031.96
470.41	36734.71
470.59	37628.79
470.77	37457.93
470.95	37970.51
471.14	38756.93
471.32	38754.59
471.50	40737.02
471.68	40898.52
471.86	41743.45
472.04	41345.56
472.22	41830.05
472.40	39346.75
472.58	39384.19
472.77	38974.60
472.95	40074.65
473.13	40840.01
473.31	39501.22
473.49	39892.09
473.67	40982.78
473.85	40816.60
474.03	42185.82
474.21	41586.64
474.39	42548.60
474.57	42796.70
474.75	42630.52
474.93	41839.42
475.12	41174.70
475.30	41635.79
475.48	41565.57
475.66	42244.33
475.84	41738.77
476.02	41614.72
476.20	40842.35
476.38	41663.88
476.56	42787.33
476.74	43203.95
476.92	43669.72
477.10	44217.40
477.28	45343.20
477.46	45345.54
477.64	45492.99
477.82	45680.24
478.00	45832.37
478.18	45240.21
478.36	44823.60
478.54	44940.63
478.72	45380.65
478.90	46632.83
479.08	47395.85
479.26	48142.48
479.44	47737.57
479.62	47461.38
479.80	47313.93
479.98	47732.89
480.16	48058.22
480.34	47721.18
480.52	47882.68
480.70	48151.84
480.88	48648.03
481.06	48694.85
481.24	49516.37
481.41	50403.44
481.59	50843.46
481.77	50143.64
481.95	49654.47
482.13	49785.54
482.31	49862.77
482.49	50450.25
482.67	50138.96
482.85	50649.19
483.03	51082.19
483.21	51442.63
483.39	51302.20
483.57	50602.38
483.74	50775.58
483.92	50803.67
484.10	50653.87
484.28	51536.26
484.46	52236.08
484.64	52608.22
484.82	51625.20
485.00	51400.50
485.18	50490.04
485.35	49532.76
485.53	46466.66
485.71	42527.53
485.89	42513.49
486.07	44524.01
486.25	47826.51
486.43	49972.78
486.61	50305.13
486.78	49879.16
486.96	50548.55
487.14	51772.65
487.32	52673.76
487.50	53551.46
487.68	54394.05
487.85	54628.10
488.03	54665.55
488.21	54248.94
488.39	53815.94
488.57	53228.46
488.75	52823.55
488.92	53844.02
489.10	55671.98
489.28	56825.87
489.46	57380.57
489.64	57209.71
489.81	57331.42
489.99	56942.89
490.17	56891.40
490.35	57352.49
490.53	56949.92
490.70	56732.25
490.88	56420.95
491.06	57422.70
491.24	57315.04
491.41	56484.15
491.59	55161.75
491.77	54457.24
491.95	55667.30
492.13	56402.23
492.30	57483.56
492.48	58314.45
492.66	58705.32
492.84	58607.01
493.01	58347.21
493.19	57722.29
493.37	57682.50
493.54	57499.94
493.72	57893.15
493.90	58892.56
494.08	59402.80
494.25	59704.73
494.43	59980.91
494.61	60055.81
494.79	60516.89
494.96	60196.24
495.14	59554.93
495.32	58981.50
495.49	58473.60
495.67	59257.68
495.85	60360.08
496.02	60722.86
496.20	60591.79
496.38	60004.31
496.55	60315.61
496.73	60470.08
496.91	60523.91
497.09	61244.80
497.26	61385.23
497.44	60804.78
497.62	60310.92
497.79	59547.91
497.97	58684.25
498.14	58740.42
498.32	59669.62
498.50	60474.76
498.67	61022.45
498.85	60893.72
499.03	60973.30
499.20	61160.54
499.38	61153.52
499.56	60900.74
499.73	60561.36
499.91	60463.06
500.08	59840.48
500.26	59444.93
500.44	59739.83
500.61	60369.44
500.79	60158.79
500.97	59920.05
501.14	59774.94
501.32	59571.32
501.49	59653.23
501.67	59819.41
501.84	60374.12
502.02	60357.74
502.20	60715.84
502.37	61017.77
502.55	60776.69
502.72	61443.74
502.90	61963.34
503.07	61509.28
503.25	61268.20
503.43	60481.78
503.60	59856.86
503.78	59419.18
503.95	59915.37
504.13	61134.79
504.30	61710.56
504.48	61558.43
504.65	61212.03
504.83	61174.58
505.01	61881.42
505.18	62134.20
505.36	62686.57
505.53	62644.44
505.71	62836.36
505.88	62904.24
506.06	62302.72
506.23	61963.34
506.41	61726.95
506.58	61836.95
506.76	62003.13
506.93	61935.26
507.11	61729.29
507.28	61874.40
507.46	61378.21
507.63	60774.35
507.81	60760.31
507.98	60835.20
508.16	61623.96
508.33	62117.82
508.50	62513.37
508.68	62553.16
508.85	62993.18
509.03	63077.44
509.20	63032.97
509.38	62323.78
509.55	61682.48
509.73	61759.72
509.90	62295.70
510.08	62433.79
510.25	62513.37
510.42	62302.72
510.60	62237.19
510.77	62328.47
510.95	63047.01
511.12	63042.33
511.30	63262.34
511.47	63339.58
511.64	63402.77
511.82	63032.97
511.99	62384.64
512.17	61953.98
512.34	61595.88
512.51	61883.76
512.69	61989.09
512.86	62052.28
513.04	62543.80
513.21	62401.02
513.38	62063.99
513.56	61804.19
513.73	61120.75
513.90	61485.87
514.08	61331.40
514.25	61811.21
514.43	61895.47
514.60	62021.86
514.77	62181.01
514.95	62152.93
515.12	62117.82
515.29	62298.04
515.47	62787.21
515.64	63018.92
515.81	62569.54
515.99	62021.86
516.16	60619.88
516.33	58738.08
516.51	57448.45
516.68	57080.98
516.85	56666.71
517.03	56875.02
517.20	59299.81
517.37	61455.45
517.54	62230.16
517.72	61766.74
517.89	59667.28
518.06	57591.22
518.24	58209.12
518.41	59910.69
518.58	61120.75
518.75	61235.44
518.93	61350.12
519.10	61385.23
519.27	61726.95
519.45	61846.32
519.62	62602.31
519.79	62939.35
519.96	62721.68
520.14	62202.08
520.31	61375.87
520.48	61464.81
520.65	61827.59
520.83	62742.74
521.00	62901.90
521.17	62576.56
521.34	62344.85
521.52	62543.80
521.69	62995.52
521.86	63505.76
522.03	63061.05
522.20	62110.80
522.38	61144.16
522.55	61073.94
522.72	61640.35
522.89	61778.44
523.07	62071.01
523.24	62440.81
523.41	62981.48
523.58	63255.32
523.75	63737.47
523.92	63653.21
524.10	63641.51
524.27	63482.35
524.44	63372.34
524.61	63297.45
524.78	63140.63
524.96	63070.42
525.13	62908.92
525.30	63175.74
525.47	63575.97
525.64	63477.67
525.81	62784.87
525.98	61446.08
526.16	60559.02
526.33	59737.49
526.50	59662.60
526.67	59185.13
526.84	59739.83
527.01	60720.52
527.18	61474.17
527.36	62251.23
527.53	62981.48
527.70	63154.68
527.87	62688.91
528.04	62342.51
528.21	62721.68
528.38	63243.62
528.55	63847.47
528.72	63959.82
528.89	64238.34
529.07	63945.78
529.24	63255.32
529.41	62684.23
529.58	62096.75
529.75	62344.85
529.92	62761.47
530.09	63187.44
530.26	63505.76
530.43	63756.19
530.60	63901.31
530.77	64074.51
530.94	64170.47
531.11	63767.90
531.28	63117.23
531.46	63241.28
531.63	63505.76
531.80	63269.36
531.97	62808.28
532.14	62173.99
532.31	61310.33
532.48	60828.18
532.65	60697.11
532.82	61443.74
532.99	62515.71
533.16	62939.35
533.33	63199.15
533.50	63264.68
533.67	62691.25
533.84	62197.40
534.01	62415.07
534.18	62501.67
534.35	62845.72
534.52	62557.84
534.69	62993.18
534.86	63234.25
535.03	63566.61
535.20	63791.30
535.37	63987.91
535.54	64221.96
535.71	63924.71
535.88	63564.27
536.05	63119.57
536.22	62506.35
536.38	62473.58
536.55	61982.07
536.72	61638.01
536.89	61495.24
537.06	62286.34
537.23	63021.26
537.40	63112.55
537.57	62967.43
537.74	62831.68
537.91	62848.06
538.08	62625.71
538.25	62883.17
538.42	62993.18
538.59	62829.34
538.75	62286.34
538.92	62183.35
539.09	62010.15
539.26	61729.29
539.43	61623.96
539.60	61862.70
539.77	61951.64
539.94	61829.93
540.11	61102.03
540.28	60753.29
540.44	60750.94
540.61	61080.96
540.78	61331.40
540.95	61511.62
541.12	61832.27
541.29	62014.83
541.46	62454.86
541.62	62351.87
541.79	62253.57
541.96	61750.35
542.13	61738.65
542.30	62113.14
542.47	62307.40
542.63	62026.54
542.80	62012.49
542.97	62000.79
543.14	61586.52
543.31	61820.57
543.48	62340.17
543.64	62988.50
543.81	63276.38
543.98	63035.31
544.15	62321.44
544.32	62049.94
544.48	61991.43
544.65	62574.22
544.82	62749.76
544.99	62438.47
545.16	62237.19
545.32	61867.38
545.49	62473.58
545.66	62929.98
545.83	62499.33
546.00	62225.48
546.16	62052.28
546.33	61970.36
546.50	62166.97
546.67	62525.07
546.83	61982.07
547.00	62108.46
547.17	61429.70
547.34	60987.34
547.50	60945.21
547.67	61399.27
547.84	61333.74
548.00	61776.10
548.17	62220.80
548.34	62089.73
548.51	61914.19
548.67	62054.62
548.84	62251.23
549.01	62152.93
549.18	61965.68
549.34	61813.55
549.51	61986.75
549.68	61834.61
549.84	61766.74
550.01	61698.86
550.18	61558.43
550.34	61563.11
550.51	61677.80
550.68	61696.52
550.84	61244.80
551.01	61422.68
551.18	61506.94
551.34	61642.69
551.51	61649.71
551.68	62075.69
551.84	62049.94
552.01	61907.17
552.18	61736.31
552.34	61336.08
552.51	60715.84
552.68	60645.62
552.84	61102.03
553.01	61453.11
553.18	61268.20
553.34	61638.01
553.51	61518.64
553.67	61698.86
553.84	61993.77
554.01	61808.87
554.17	61811.21
554.34	61661.41
554.51	61780.78
554.67	62342.51
554.84	62159.95
555.00	61584.18
555.17	61425.02
555.33	61385.23
555.50	61523.32
555.67	61345.44
555.83	61207.35
556.00	60942.87
556.16	60959.25
556.33	60654.98
556.50	60441.99
556.66	60601.15
556.83	60350.71
556.99	60327.31
557.16	60491.15
557.32	60879.67
557.49	61200.33
557.65	61092.66
557.82	61022.45
557.98	60896.06
558.15	60465.40
558.32	59655.57
558.48	58894.90
558.65	59238.96
558.81	59505.78
558.98	59777.28
559.14	60074.53
559.31	59980.91
559.47	59870.90
559.64	59618.13
559.80	59330.24
559.97	59522.16
560.13	59880.27
560.30	60736.90
560.46	61006.06
560.63	61345.44
560.79	61275.22
560.96	60975.64
561.12	60027.72
561.29	59138.32
561.45	59187.47
561.61	59835.80
561.78	60413.91
561.94	60018.36
562.11	60013.68
562.27	59880.27
562.44	60121.34
562.60	60444.33
562.77	60608.17
562.93	60526.25
563.10	60441.99
563.26	59957.50
563.42	59875.58
563.59	59725.79
563.75	59693.02
563.92	59772.60
564.08	59695.36
564.24	60088.57
564.41	60001.97
564.57	59908.35
564.74	59606.42
564.90	59774.94
565.07	59386.41
565.23	59250.66
565.39	58988.52
565.56	58583.61
565.72	58419.77
565.88	58763.83
566.05	58791.92
566.21	58915.96
566.38	59377.05
566.54	59421.52
566.70	59554.93
566.87	59894.31
567.03	59746.86
567.19	59934.10
567.36	59796.01
567.52	59489.40
567.68	59288.11
567.85	58911.28
568.01	58539.14
568.17	58323.81
568.34	58234.87
568.50	57897.83
568.66	58272.32
568.83	58536.80
568.99	58515.73
569.15	58749.79
569.32	58831.71
569.48	58506.37
569.64	58422.11
569.81	58174.02
569.97	58134.23
570.13	57855.70
570.30	57710.59
570.46	57240.14
570.62	56858.63
570.78	56694.80
570.95	56982.68
571.11	57577.18
571.27	57813.57
571.43	57748.04
571.60	58225.51
571.76	58328.49
571.92	58656.17
572.09	58808.30
572.25	58691.27
572.41	58515.73
572.57	58468.92
572.74	58281.68
572.90	58302.74
573.06	58190.40
573.22	58316.79
573.38	58237.21
573.55	58295.72
573.71	58246.57
573.87	58183.38
574.03	58197.42
574.20	58237.21
574.36	57659.10
574.52	57455.47
574.68	57542.07
574.84	57095.03
575.01	56966.30
575.17	56669.05
575.33	57130.14
575.49	57116.09
575.65	57432.07
575.82	57064.60
575.98	56900.76
576.14	57057.58
576.30	57448.45
576.46	57542.07
576.62	57525.69
576.79	57556.11
576.95	57188.65
577.11	57109.07
577.27	57317.38
577.43	57076.30
577.59	56973.32
577.75	56488.83
577.92	56067.53
578.08	55870.93
578.24	55877.95
578.40	56336.69
578.56	56495.85
578.72	56486.49
578.88	56643.30
579.04	56853.95
579.21	56814.16
579.37	56914.81
579.53	57048.22
579.69	56942.89
579.85	57064.60
580.01	56849.27
580.17	56629.26
580.33	56207.97
580.49	56348.40
580.65	56757.99
580.82	56825.87
580.98	56992.04
581.14	56966.30
581.30	56865.66
581.46	56605.86
581.62	56921.83
581.78	56975.66
581.94	57022.47
582.10	56898.42
582.26	56963.96
582.42	57212.06
582.58	57034.17
582.74	56987.36
582.90	56961.62
583.06	57104.39
583.22	56767.35
583.38	56591.81
583.54	56662.03
583.70	56425.64
583.86	56760.33
584.02	56690.12
584.18	56882.04
584.34	56439.68
584.50	56498.19
584.66	56479.47
584.82	56278.18
584.98	56037.11
585.14	55517.51
585.30	55117.28
585.46	54927.69
585.62	54869.18
585.78	55203.88
585.94	55274.09
586.10	55751.56
586.26	55545.59
586.42	55791.35
586.58	56189.24
586.74	56083.92
586.90	55927.10
587.06	56020.72
587.22	55671.98
587.38	55634.53
587.54	55391.12
587.70	55246.00
587.86	55061.10
588.02	54794.28
588.18	54394.05
588.34	53476.56
588.49	51941.17
588.65	49977.46
588.81	49766.81
588.97	50295.77
589.13	49759.79
589.29	50108.53
589.45	50712.39
589.61	51999.68
589.77	52629.29
589.93	53345.49
590.08	53954.03
590.24	54078.08
590.40	54232.55
590.56	54674.91
590.72	54277.02
590.88	53886.15
591.04	53499.97
591.20	53499.97
591.35	53776.15
591.51	53858.07
591.67	53633.38
591.83	53818.28
591.99	53792.53
592.15	53731.68
592.31	54012.54
592.46	53846.36
592.62	53570.18
592.78	53387.62
592.94	53759.76
593.10	53516.35
593.26	53951.69
593.41	54019.56
593.57	53474.22
593.73	53268.25
593.89	53111.44
594.05	53050.58
594.20	52706.52
594.36	52488.85
594.52	52357.78
594.68	52378.85
594.84	52198.63
594.99	53200.38
595.15	53132.50
595.31	53055.26
595.47	53333.79
595.62	53186.33
595.78	53111.44
595.94	53581.88
596.10	53298.68
596.25	53301.02
596.41	52935.90
596.57	52594.18
596.73	52961.64
596.88	53350.17
597.04	53118.46
597.20	52846.96
597.36	52516.94
597.51	52973.34
597.67	52538.01
597.83	52245.44
597.99	52488.85
598.14	52086.28
598.30	52027.77
598.46	51915.42
598.61	52191.61
598.77	52549.71
598.93	52465.45
599.09	52734.61
599.24	52722.91
599.40	52598.86
599.56	52348.42
599.71	52619.92
599.87	52591.84
600.03	52329.70
600.18	52105.01
600.34	51662.64
600.50	51718.82
600.65	51496.47
600.81	51887.34
600.97	51854.57
601.12	51980.96
601.28	51655.62
601.44	51505.83
601.59	51323.27
601.75	50864.52
601.91	51196.88
602.06	51325.61
602.22	51239.01
602.37	51079.85
602.53	51838.18
602.69	51828.82
602.84	52046.49
603.00	52048.83
603.16	51917.76
603.31	52147.14
603.47	52095.64
603.62	52069.90
603.78	52163.52
603.94	51674.35
604.09	51828.82
604.25	51409.87
604.40	51316.25
604.56	51559.66
604.71	51931.81
604.87	51814.78
605.03	51606.47
605.18	51297.52
605.34	50941.76
605.49	51098.58
605.65	51398.16
605.80	51604.13
605.96	50948.78
606.12	50691.32
606.27	50726.43
606.43	50817.71
606.58	50988.57
606.74	50733.45
606.89	50829.41
607.05	51381.78
607.20	51019.00
607.36	50532.17
607.51	50459.61
607.67	50113.21
607.82	50108.53
607.98	49968.10
608.13	50045.33
608.29	49853.41
608.44	49687.23
608.60	49385.30
608.75	49521.05
608.91	49378.28
609.06	49544.46
609.22	50087.46
609.37	49944.69
609.53	49858.09
609.68	49432.11
609.84	48308.66
609.99	48076.94
610.15	48449.09
610.30	48706.55
610.46	49109.12
610.61	49261.26
610.76	49406.37
610.92	49972.78
611.07	49832.35
611.23	49385.30
611.38	49712.98
611.54	49413.39
611.69	48598.88
611.84	48322.70
612.00	48011.41
612.15	48105.03
612.31	48371.85
612.46	47807.78
612.62	48711.23
612.77	48322.70
612.92	48828.26
613.08	47908.43
613.23	47093.92
613.39	46550.91
613.54	46600.07
613.69	46871.57
613.85	46848.16
614.00	47255.42
614.15	47648.63
614.31	47599.47
614.46	47772.67
614.62	47550.32
614.77	47459.04
614.92	47601.82
615.08	47409.89
615.23	47075.19
615.38	46939.44
615.54	46604.75
615.69	45132.55
615.84	44751.04
616.00	44275.91
616.15	44793.17
616.30	45556.19
616.46	45099.78
616.61	44765.09
616.76	45385.33
616.92	45254.26
617.07	45797.26
617.22	46349.63
617.37	45755.13
617.53	46492.40
617.68	46817.74
617.83	46625.81
617.99	46611.77
618.14	46583.68
618.29	46410.48
618.45	46080.47
618.60	45088.08
618.75	45237.87
618.90	45181.70
619.06	45418.10
619.21	46232.60
619.36	46080.47
619.51	45743.43
619.67	45425.12
619.82	45139.57
619.97	45666.19
620.12	45404.05
620.28	45338.52
620.43	45771.52
620.58	46050.04
620.73	45443.84
620.89	44994.46
621.04	45123.19
621.19	44465.50
621.34	44327.41
621.49	44224.42
621.65	43894.41
621.80	44524.01
621.95	43718.87
622.10	44369.54
622.25	44336.77
622.41	44039.52
622.56	43721.21
622.71	43021.39
622.86	42974.58
623.01	43201.61
623.16	43405.23
623.32	43597.16
623.47	43267.14
623.62	43672.06
623.77	42770.95
623.92	42660.94
624.07	42040.70
624.23	41684.94
624.38	42284.12
624.53	41970.49
624.68	42270.08
624.83	42033.68
624.98	41368.97
625.13	41478.97
625.29	41612.38
625.44	41591.32
625.59	41776.22
625.74	41490.68
625.89	41354.93
626.04	41687.28
626.19	41813.67
626.34	41521.10
626.49	41640.47
626.65	41464.93
626.80	41727.07
626.95	41130.23
627.10	41373.65
627.25	40409.35
627.40	39564.42
627.55	39072.90
627.70	38403.51
627.85	38667.99
628.00	39019.07
628.15	39978.69
628.30	40474.88
628.45	40257.21
628.60	40006.78
628.76	39852.30
628.91	40409.35
629.06	39683.78
629.21	40088.70
629.36	39491.86
629.51	39264.83
629.66	39236.74
629.81	38487.77
629.96	38284.14
630.11	38806.08
630.26	39627.61
630.41	39030.77
630.56	39271.85
630.71	39658.04
630.86	39356.11
631.01	38941.83
631.16	38499.47
631.31	38265.42
631.46	37565.60
631.61	38300.53
631.76	38345.00
631.91	38220.95
632.06	38543.94
632.21	38761.61
632.36	39573.78
632.51	39002.69
632.66	39313.98
632.81	38831.83
632.96	39070.56
633.10	38220.95
633.25	38499.47
633.40	37624.11
633.55	38316.91
633.70	37848.80
633.85	38157.75
634.00	38153.07
634.15	38178.82
634.30	38103.92
634.45	38279.46
634.60	38005.62
634.75	38415.21
634.90	38632.88
635.05	38258.40
635.19	37839.44
635.34	38150.73
635.49	37687.31
635.64	37722.41
635.79	37640.50
635.94	37036.64
636.09	37635.81
636.24	37944.76
636.39	37345.59
636.53	38043.07
636.68	37902.64
636.83	37731.78
636.98	38029.02
637.13	38012.64
637.28	38195.20
637.43	37963.49
637.57	38036.05
637.72	37397.08
637.87	37584.32
638.02	37333.89
638.17	37476.66
638.32	37364.31
638.46	37046.00
638.61	37249.63
638.76	37235.58
638.91	36479.59
639.06	36067.66
639.20	36524.06
639.35	36582.57
639.50	35896.80
639.65	35903.82
639.80	36528.74
639.94	35697.85
640.09	36215.11
640.24	36020.84
640.39	35803.17
640.54	35360.81
640.68	35592.53
640.83	35367.84
640.98	34827.17
641.13	35044.84
641.27	35543.38
641.42	35304.64
641.57	35054.20
641.72	35739.98
641.86	35239.11
642.01	34717.17
642.16	35515.29
642.31	35803.17
642.45	35981.06
642.60	35842.96
642.75	35030.80
642.90	35199.32
643.04	34909.09
643.19	34649.29
643.34	35091.65
643.48	34256.08
643.63	34511.20
643.78	34471.41
643.93	35028.46
644.07	35503.59
644.22	35496.56
644.37	34911.43
644.51	34953.56
644.66	34733.55
644.81	34340.34
644.95	34326.30
645.10	34157.78
645.25	33762.23
645.39	33806.70
645.54	33993.94
645.69	33280.08
645.83	33137.30
645.98	32491.32
646.13	32687.92
646.27	32914.95
646.42	32985.17
646.57	32800.27
646.71	32945.38
646.86	32474.93
647.00	32376.63
647.15	32301.73
647.30	32187.05
647.44	32229.18
647.59	32222.16
647.74	32046.62
647.88	32233.86
648.03	31850.01
648.17	31969.38
648.32	32194.07
648.47	32432.80
648.61	32053.64
648.76	32313.44
648.90	31580.85
649.05	30455.05
649.20	29727.14
649.34	29816.08
649.49	29731.83
649.63	30539.31
649.78	31166.57
649.92	31534.04
650.07	32318.12
650.21	32196.41
650.36	32149.60
650.51	32397.70
650.65	32507.70
650.80	32077.04
650.94	32142.58
651.09	31351.48
651.23	30632.93
651.38	30368.45
651.52	30099.29
651.67	30527.61
651.81	31129.12
651.96	30955.93
652.10	31302.32
652.25	31211.04
652.39	31398.29
652.54	31077.63
652.68	31243.81
652.83	30923.16
652.97	31328.07
653.12	30925.50
653.26	31168.91
653.41	31318.71
653.55	31264.88
653.70	31311.69
653.84	30738.26
653.99	30817.83
654.13	30134.40
654.27	29710.76
654.42	29708.42
654.56	29450.96
654.71	29509.47
654.85	29186.48
655.00	29317.55
655.14	29032.00
655.29	28776.89
655.43	27578.53
655.57	26618.91
655.72	24863.51
655.86	23129.17
656.01	22148.49
656.15	22466.80
656.30	23510.68
656.44	24596.69
656.58	26052.50
656.73	27023.83
656.87	27517.68
657.01	27887.48
657.16	28327.50
657.30	28610.71
657.45	28896.25
657.59	28891.57
657.73	29216.91
657.88	29223.93
658.02	29027.32
658.16	29195.84
658.31	28725.39
658.45	29008.60
658.60	28627.09
658.74	28573.26
658.88	28456.23
659.03	28151.96
659.17	28032.60
659.31	28126.22
659.46	28489.00
659.60	28685.61
659.74	28641.14
659.89	28872.85
660.03	28767.52
660.17	28650.50
660.32	28671.56
660.46	28449.21
660.60	28379.00
660.74	28320.48
660.89	28191.75
661.03	28402.40
661.17	28432.83
661.32	27903.87
661.46	28519.43
661.60	28376.66
661.74	28367.29
661.89	28341.55
662.03	28320.48
662.17	28329.84
662.31	28004.51
662.46	28348.57
662.60	27758.75
662.74	27676.83
662.88	27440.44
663.03	26895.10
663.17	26834.24
663.31	27049.57
663.45	27215.75
663.60	27236.81
663.74	26974.67
663.88	27021.48
664.02	26658.70
664.17	27009.78
664.31	26876.37
664.45	26923.18
664.59	27232.13
664.73	27349.16
664.88	26977.01
665.02	26794.45
665.16	26827.22
665.30	26642.32
665.44	26703.17
665.59	26146.12
665.73	26342.73
665.87	26267.83
666.01	25907.39
666.15	25692.06
666.29	25296.51
666.44	25844.20
666.58	25759.94
666.72	26071.23
666.86	26087.61
667.00	25986.97
667.14	25888.67
667.28	25766.96
667.43	25502.48
667.57	25458.01
667.71	25612.48
667.85	25558.65
667.99	25631.21
668.13	25734.19
668.27	25710.78
668.41	25397.15
668.56	25013.31
668.70	25266.08
668.84	25142.03
668.98	25078.84
669.12	24922.02
669.26	24636.48
669.40	24755.85
669.54	24599.03
669.68	24978.20
669.82	24645.84
669.96	24446.90
670.10	24575.62
670.25	24205.82
670.39	24383.70
670.53	23917.93
670.67	23737.71
670.81	24060.71
670.95	23878.15
671.09	23683.88
671.23	23648.77
671.37	23704.95
671.51	23321.10
671.65	23356.21
671.79	23213.43
671.93	23248.54
672.07	23658.14
672.21	23328.12
672.35	23754.10
672.49	23190.03
672.63	23349.18
672.77	23461.53
672.91	23363.23
673.05	22717.24
673.19	23058.96
673.33	23204.07
673.47	22752.35
673.61	22984.06
673.75	23082.36
673.89	22932.57
674.03	23267.27
674.17	22984.06
674.31	22621.28
674.45	22405.95
674.59	22338.07
674.73	22471.48
674.87	22066.57
675.01	22064.23
675.15	22031.46
675.29	22141.47
675.43	21926.14
675.56	22087.64
675.70	22057.21
675.84	21781.03
675.98	21453.35
676.12	21986.99
676.26	21790.39
676.40	21565.70
676.54	21163.12
676.68	21415.90
676.82	21123.33
676.96	20959.50
677.10	20994.61
677.23	21202.91
677.37	21301.22
677.51	20690.34
677.65	20835.45
677.79	20877.58
677.93	20542.88
678.07	20397.77
678.21	20215.21
678.34	20264.36
678.48	20044.35
678.62	19978.81
678.76	19857.10
678.90	20409.47
679.04	19814.98
679.18	20025.62
679.31	19997.54
679.45	19742.42
679.59	19632.41
679.73	19747.10
679.87	19716.67
680.00	19576.24
680.14	19641.78
680.28	19257.93
680.42	19309.42
680.56	19295.38
680.70	18986.43
680.83	18803.86
680.97	18827.27
681.11	18782.80
681.25	18824.93
681.39	18574.49
681.52	18834.29
681.66	18857.70
681.80	18616.62
681.94	18569.81
682.07	18773.44
682.21	18925.57
682.35	18450.44
682.49	18321.71
682.62	18164.90
682.76	17984.68
682.90	17933.18
683.04	18279.58
683.17	18221.07
683.31	17891.06
683.45	17797.43
683.59	17249.75
683.72	17123.36
683.86	16985.27
684.00	16877.60
684.13	17109.32
684.27	16662.27
684.41	17170.17
684.55	17296.56
684.68	17006.33
684.82	17003.99
684.96	16936.12
685.09	16472.69
685.23	16318.22
685.37	16121.61
685.50	16229.27
685.64	16217.57
685.78	16311.19
685.91	16039.69
686.05	16112.25
686.19	15438.17
686.32	14820.27
686.46	13032.10
686.60	11550.54
686.73	10705.61
686.87	10183.67
687.01	10005.79
687.14	10204.74
687.28	10534.75
687.42	10719.65
687.55	11566.93
687.69	12226.96
687.82	12760.60
687.96	13500.21
688.10	13036.78
688.23	13034.44
688.37	12622.51
688.50	12542.93
688.64	12587.40
688.78	12198.87
688.91	12226.96
689.05	12315.90
689.18	12114.61
689.32	11978.86
689.46	12243.34
689.59	12313.56
689.73	12351.01
689.86	12173.13
690.00	12273.77
690.13	12493.78
690.27	12332.28
690.41	12571.02
690.54	12407.18
690.68	12432.93
690.81	12383.77
690.95	12556.97
691.08	12662.30
691.22	12505.48
691.35	12442.29
691.49	12538.25
691.62	12423.56
691.76	12613.15
691.89	12610.81
692.03	12358.03
692.16	12379.09
692.30	12152.06
692.43	12224.62
692.57	12112.27
692.70	12135.68
692.84	11908.65
692.97	11747.15
693.11	11852.47
693.24	11595.01
693.38	11641.82
693.51	11632.46
693.65	11482.67
693.78	11398.41
693.92	11183.08
694.05	11103.50
694.19	11082.44
694.32	11143.29
694.45	11407.77
694.59	11112.86
694.72	11213.51
694.86	11105.84
694.99	11080.10
695.13	10789.87
695.26	10965.41
695.39	10897.53
695.53	10726.68
695.66	10731.36
695.80	10721.99
695.93	10981.79
696.07	10885.83
696.20	11103.50
696.33	11293.08
696.47	11180.74
696.60	11124.57
696.73	11384.37
696.87	11131.59
697.00	11433.52
697.14	11105.84
697.27	10801.57
697.40	10808.59
697.54	10469.22
697.67	10125.16
697.80	10202.40
697.94	10216.44
698.07	10303.04
698.21	10061.96
698.34	9975.36
698.47	9762.37
698.61	9813.87
698.74	9841.95
698.87	9748.33
699.01	9540.02
699.14	9792.80
699.27	9687.48
699.40	9715.56
699.54	9605.56
699.67	9769.40
699.80	9523.64
699.94	9448.74
700.07	9123.41
700.20	8919.78
700.34	9029.79
700.47	9011.06
700.60	9116.39
700.73	9109.36
700.87	8952.55
701.00	9013.40
701.13	8788.71
701.26	8774.67
701.40	8854.25
701.53	8762.97
701.66	8601.47
701.79	8744.24
701.93	8896.38
702.06	8683.39
702.19	8503.17
702.32	8444.65
702.46	8353.37
702.59	8313.58
702.72	8547.64
702.85	8568.70
702.99	8636.58
703.12	8641.26
703.25	8411.89
703.38	8601.47
703.51	8250.39
703.65	8203.58
703.78	8018.68
703.91	7992.93
704.04	8283.16
704.17	8332.31
704.31	8234.00
704.44	8264.43
704.57	8362.73
704.70	8163.79
704.83	8016.33
704.96	7861.86
705.10	7969.52
705.23	7892.29
>>>>>End Processed Spectral Data<<<<<
