SpectraSuite Data File
++++++++++++++++++++++++++++++++++++
Date: Mon Oct 07 14:55:02 GMT-05:00 2013
User: price-jones
Dark Spectrum Present: No
Reference Spectrum Present: No
Number of Sampled Component Spectra: 1
Spectrometers: USB2+H05261
Integration Time (usec): 10000 (USB2+H05261)
Spectra Averaged: 1 (USB2+H05261)
Boxcar Smoothing: 0 (USB2+H05261)
Correct for Electrical Dark: No (USB2+H05261)
Strobe/Lamp Enabled: No (USB2+H05261)
Correct for Detector Non-linearity: No (USB2+H05261)
Correct for Stray Light: No (USB2+H05261)
Number of Pixels in Processed Spectrum: 2048
>>>>>Begin Processed Spectral Data<<<<<
365.73	0.00
365.92	0.00
366.12	0.00
366.32	0.00
366.52	0.00
366.72	0.00
366.91	0.00
367.11	0.00
367.31	0.00
367.51	0.00
367.70	0.00
367.90	0.00
368.10	0.00
368.30	0.00
368.49	0.00
368.69	0.00
368.89	0.00
369.09	0.00
369.28	0.00
369.48	0.00
369.68	0.00
369.87	0.00
370.07	0.00
370.27	0.00
370.47	493.85
370.66	2827.37
370.86	3375.05
371.06	3662.94
371.25	3403.14
371.45	3115.25
371.65	2745.45
371.84	2850.77
372.04	3133.98
372.24	3229.94
372.44	3255.69
372.63	3337.60
372.83	2895.24
373.03	2605.02
373.22	2499.69
373.42	2684.59
373.62	3192.49
373.81	3335.26
374.01	3377.39
374.21	2897.58
374.40	2780.56
374.60	2993.55
374.79	3513.14
374.99	4025.72
375.19	4114.66
375.38	4088.92
375.58	3660.60
375.78	3768.26
375.97	3918.06
376.17	3882.95
376.37	4180.20
376.56	4177.86
376.76	4292.54
376.95	4652.98
377.15	4987.68
377.35	5064.92
377.54	5378.55
377.74	5596.22
377.93	5364.51
378.13	5282.59
378.33	4840.23
378.52	4524.26
378.72	4535.96
378.91	4374.46
379.11	4367.44
379.31	4107.64
379.50	4168.49
379.70	4578.09
379.89	4978.32
380.09	5268.55
380.28	5584.52
380.48	5376.21
380.68	5296.63
380.87	4915.12
381.07	4786.40
381.26	4198.92
381.46	4142.75
381.65	3906.35
381.85	3854.86
382.04	3550.59
382.24	3478.04
382.43	3241.64
382.63	3375.05
382.83	3131.64
383.02	3304.84
383.22	3234.62
383.41	3325.90
383.61	3538.89
383.80	4243.39
384.00	4725.54
384.19	5526.00
384.39	5331.74
384.58	5301.31
384.78	5240.46
384.97	5317.70
385.17	4877.68
385.36	4704.48
385.56	4578.09
385.75	4919.81
385.95	5303.65
386.14	5813.89
386.34	5659.42
386.53	5179.61
386.72	4947.89
386.92	5071.94
387.11	5664.10
387.31	5781.12
387.50	5563.45
387.70	5465.15
387.89	5322.38
388.09	5305.99
388.28	5224.08
388.48	5481.53
388.67	6047.94
388.86	6576.91
389.06	7152.68
389.25	7375.03
389.45	7548.23
389.64	7342.26
389.84	7178.42
390.03	6967.77
390.22	7087.14
390.42	7770.58
390.61	7967.18
390.81	8592.11
391.00	8887.01
391.19	8496.14
391.39	8065.49
391.58	7709.72
391.78	7461.63
391.97	6895.22
392.16	6525.41
392.36	5860.70
392.55	4432.97
392.75	3562.30
392.94	3082.49
393.13	3234.62
393.33	3985.93
393.52	5078.96
393.71	6073.69
393.91	6703.29
394.10	7279.07
394.29	7896.97
394.49	8704.45
394.68	9027.45
394.88	8985.32
395.07	9563.43
395.26	9369.16
395.46	8898.72
395.65	8318.26
395.84	7122.25
396.04	5970.71
396.23	4821.50
396.42	4074.87
396.62	4112.32
396.81	5238.12
397.00	6565.20
397.19	8231.66
397.39	9521.30
397.58	10558.16
397.77	11119.89
397.97	11623.10
398.16	11957.80
398.35	12140.36
398.55	12311.22
398.74	12898.69
398.93	13259.13
399.12	12898.69
399.32	12659.96
399.51	12980.61
399.70	13678.09
399.90	13317.65
400.09	13628.94
400.28	13336.37
400.47	13792.78
400.67	14010.45
400.86	14558.13
401.05	14576.86
401.24	14827.29
401.44	14831.97
401.63	14902.19
401.82	15154.97
402.01	14686.86
402.21	14927.94
402.40	15250.93
402.59	14537.07
402.78	13638.30
402.97	14153.22
403.17	14689.20
403.36	15131.56
403.55	15917.98
403.74	15899.26
403.93	14939.64
404.13	13855.97
404.32	13841.93
404.51	15087.09
404.70	15400.72
404.89	15272.00
405.09	15358.60
405.28	14897.51
405.47	14979.43
405.66	14771.12
405.85	14211.73
406.05	13902.78
406.24	14256.20
406.43	15204.12
406.62	15625.42
406.81	15702.65
407.00	15293.06
407.20	14630.69
407.39	14974.75
407.58	15606.69
407.77	16585.04
407.96	16587.38
408.15	17048.46
408.34	17118.68
408.54	17954.25
408.73	17762.33
408.92	17495.50
409.11	16938.46
409.30	15620.74
409.49	14768.78
409.68	14391.95
409.87	13954.27
410.07	15040.28
410.26	16095.86
410.45	16910.37
410.64	17654.66
410.83	18125.11
411.02	18408.31
411.21	18963.02
411.40	18881.10
411.59	19232.18
411.78	18735.99
411.98	18553.43
412.17	18766.42
412.36	18721.95
412.55	18815.57
412.74	17886.37
412.93	17970.63
413.12	18396.61
413.31	20177.76
413.50	20149.67
413.69	19826.68
413.88	19283.67
414.07	19058.98
414.26	19829.02
414.45	20081.80
414.64	19648.80
414.83	19761.14
415.02	19344.53
415.22	19550.49
415.41	20278.40
415.60	20779.28
415.79	21287.17
415.98	21961.25
416.17	21809.11
416.36	21425.26
416.55	21078.86
416.74	20245.63
416.93	20173.08
417.12	19786.89
417.31	19880.51
417.50	20655.23
417.69	21638.25
417.88	21137.38
418.07	20582.67
418.26	20582.67
418.45	21212.28
418.64	21804.43
418.83	22780.43
419.02	22300.62
419.21	21745.92
419.39	20725.44
419.58	19943.70
419.77	20224.57
419.96	21317.60
420.15	22401.27
420.34	23204.07
420.53	23220.45
420.72	24020.92
420.91	23627.71
421.10	23323.44
421.29	22988.74
421.48	22803.84
421.67	23882.83
421.86	22375.52
422.05	20814.38
422.24	18789.82
422.43	20030.30
422.61	22265.52
422.80	23117.47
422.99	22698.52
423.18	21706.13
423.37	21708.47
423.56	21937.84
423.75	22244.45
423.94	22661.07
424.13	21851.24
424.32	21380.79
424.50	21551.65
424.69	21509.52
424.88	21900.39
425.07	21474.42
425.26	22038.48
425.45	21069.50
425.64	20851.83
425.83	21118.65
426.01	22391.91
426.20	22569.79
426.39	22338.07
426.58	20311.17
426.77	19129.20
426.96	19187.71
427.15	19955.41
427.33	21369.09
427.52	22160.19
427.71	22141.47
427.90	22125.08
428.09	21736.56
428.28	21090.57
428.46	19875.83
428.65	20039.67
428.84	20709.06
429.03	20828.43
429.22	19559.86
429.40	18005.74
429.59	16358.00
429.78	14836.66
429.97	15016.88
430.16	15087.09
430.34	15000.49
430.53	15438.17
430.72	16248.00
430.91	18302.99
431.10	21378.45
431.28	24311.14
431.47	26501.89
431.66	25549.29
431.85	22815.54
432.03	21362.07
432.22	21465.05
432.41	23159.60
432.60	24865.85
432.79	25282.47
432.97	25584.40
433.16	24418.81
433.35	22207.00
433.54	19999.88
433.72	19660.50
433.91	21106.95
434.10	23545.79
434.28	24673.93
434.47	25860.58
434.66	24774.57
434.85	24353.27
435.03	24542.86
435.22	25371.41
435.41	26506.57
435.59	26979.36
435.78	26787.43
435.97	28107.49
436.16	27564.49
436.34	27285.97
436.53	26548.70
436.72	26820.20
436.90	25465.03
437.09	25415.88
437.28	24732.44
437.46	26286.56
437.65	25418.22
437.84	22841.29
438.02	21958.91
438.21	22384.88
438.40	23300.03
438.58	24898.62
438.77	26312.30
438.96	26654.02
439.14	27569.17
439.33	27789.18
439.52	28009.19
439.70	26998.08
439.89	26572.10
440.08	26398.90
440.26	26644.66
440.45	27370.22
440.63	29392.45
440.82	29883.96
441.01	29479.05
441.19	29710.76
441.38	30340.36
441.57	31613.62
441.75	31335.09
441.94	31768.09
442.12	31461.48
442.31	33027.30
442.50	32275.99
442.68	31559.78
442.87	31620.64
443.05	31007.42
443.24	31878.10
443.43	32233.86
443.61	32797.93
443.80	33439.23
443.98	32496.00
444.17	31550.42
444.35	32999.21
444.54	33369.02
444.73	33008.58
444.91	31253.17
445.10	30012.69
445.28	29497.77
445.47	28910.30
445.65	29118.60
445.84	29961.20
446.02	30766.34
446.21	31374.88
446.39	32254.92
446.58	32074.70
446.77	33209.86
446.95	32858.78
447.14	34153.10
447.32	34726.53
447.51	33867.55
447.69	32336.84
447.88	32329.82
448.06	32863.46
448.25	33123.26
448.43	33113.90
448.62	32388.33
448.80	32343.86
448.99	32732.39
449.17	33322.21
449.36	33692.01
449.54	34948.88
449.73	35131.44
449.91	35541.03
450.10	37244.94
450.28	36793.22
450.46	36575.55
450.65	36498.31
450.83	36381.29
451.02	35697.85
451.20	35405.28
451.39	35384.22
451.57	35337.41
451.76	35323.36
451.94	34726.53
452.13	33696.69
452.31	32290.03
452.49	31154.87
452.68	32079.38
452.86	32098.11
453.05	32748.78
453.23	33986.92
453.42	34071.18
453.60	35388.90
453.78	35051.86
453.97	35136.12
454.15	34335.66
454.34	33387.74
454.52	33441.57
454.70	33446.26
454.89	34022.03
455.07	33675.63
455.26	34815.47
455.44	35814.88
455.62	36275.96
455.81	36011.48
455.99	36308.73
456.17	35992.76
456.36	36975.78
456.54	37184.09
456.73	36741.73
456.91	37656.88
457.09	37577.30
457.28	38686.71
457.46	36318.09
457.64	36589.59
457.83	35765.73
458.01	35049.52
458.19	36271.28
458.38	37317.50
458.56	37862.85
458.74	37240.26
458.93	36425.76
459.11	36067.66
459.29	36137.87
459.48	36657.47
459.66	35489.54
459.84	36470.23
460.03	36411.71
460.21	37495.38
460.39	38618.84
460.57	37823.06
460.76	38256.06
460.94	38274.78
461.12	38033.71
461.31	38043.07
461.49	38649.27
461.67	38347.34
461.85	39779.74
462.04	38974.60
462.22	39082.27
462.40	39115.03
462.59	38347.34
462.77	39206.31
462.95	38366.06
463.13	38745.23
463.32	37567.94
463.50	37544.53
463.68	37509.43
463.86	38223.29
464.05	36907.91
464.23	36615.34
464.41	36400.01
464.59	36055.95
464.78	37633.47
464.96	37097.49
465.14	36559.17
465.32	38602.46
465.50	40013.80
465.69	40091.04
465.87	38923.11
466.05	37170.05
466.23	36439.80
466.41	35288.26
466.60	36968.76
466.78	36458.52
466.96	36751.09
467.14	37607.73
467.32	37888.59
467.51	38014.98
467.69	35981.06
467.87	37780.93
468.05	37944.76
468.23	37993.92
468.41	37993.92
468.60	38279.46
468.78	38293.50
468.96	38188.18
469.14	39360.79
469.32	38749.91
469.50	36793.22
469.69	37366.65
469.87	37013.23
470.05	36491.29
470.23	36795.56
470.41	37111.53
470.59	37464.96
470.77	37474.32
470.95	38087.54
471.14	39374.83
471.32	39342.06
471.50	41242.58
471.68	40954.69
471.86	41471.95
472.04	41521.10
472.22	41476.63
472.40	39976.35
472.58	39367.81
472.77	39192.27
472.95	40196.36
473.13	41551.53
473.31	40432.75
473.49	40252.53
473.67	41013.21
473.85	41413.44
474.03	42960.53
474.21	43075.22
474.39	43129.05
474.57	43058.84
474.75	43243.74
474.93	42447.96
475.12	41008.53
475.30	42029.00
475.48	41383.01
475.66	42256.03
475.84	41242.58
476.02	42061.77
476.20	41113.85
476.38	42150.71
476.56	42658.60
476.74	43924.83
476.92	43908.45
477.10	44245.49
477.28	45195.74
477.46	45750.45
477.64	46623.47
477.82	46733.48
478.00	46410.48
478.18	45170.00
478.36	44900.84
478.54	45701.30
478.72	46199.83
478.90	47821.83
479.08	48460.79
479.26	47938.85
479.44	48907.83
479.62	48177.59
479.80	48933.58
479.98	48238.44
480.16	48694.85
480.34	48046.52
480.52	49153.59
480.70	48729.95
480.88	49031.88
481.06	49090.40
481.24	49841.71
481.41	50841.12
481.59	51466.04
481.77	50141.30
481.95	50174.06
482.13	50279.39
482.31	50674.94
482.49	51409.87
482.67	50113.21
482.85	50756.86
483.03	51136.02
483.21	51786.69
483.39	51742.22
483.57	51281.14
483.74	51215.60
483.92	51262.41
484.10	51035.38
484.28	51587.75
484.46	51770.31
484.64	53104.41
484.82	51997.34
485.00	51800.74
485.18	51007.29
485.35	49151.25
485.53	43943.56
485.71	40950.01
485.89	42953.51
486.07	45949.40
486.25	48121.41
486.43	50281.73
486.61	50944.10
486.78	50309.82
486.96	51222.62
487.14	52568.43
487.32	53073.99
487.50	53867.43
487.68	55007.27
487.85	55283.45
488.03	54712.36
488.21	54035.95
488.39	54096.80
488.57	52573.11
488.75	52891.43
488.92	54468.95
489.10	55725.81
489.28	56423.29
489.46	57659.10
489.64	57436.75
489.81	57621.65
489.99	56999.07
490.17	57308.02
490.35	57258.87
490.53	57090.35
490.70	56786.08
490.88	56711.18
491.06	57750.38
491.24	58218.49
491.41	57120.77
491.59	55863.91
491.77	55304.52
491.95	56322.65
492.13	57497.60
492.30	57944.64
492.48	58784.90
492.66	58829.37
492.84	58550.84
493.01	58255.93
493.19	58021.88
493.37	57715.27
493.54	58078.05
493.72	59028.31
493.90	59276.41
494.08	59763.24
494.25	60020.70
494.43	60491.15
494.61	60757.97
494.79	60617.53
494.96	60807.12
495.14	60589.45
495.32	59187.47
495.49	59292.79
495.67	60210.28
495.85	61106.71
496.02	61689.50
496.20	60795.42
496.38	60486.46
496.55	60582.43
496.73	61326.72
496.91	61546.73
497.09	61537.36
497.26	61932.92
497.44	61256.50
497.62	60430.29
497.79	60006.65
497.97	59463.65
498.14	59737.49
498.32	60933.51
498.50	60755.63
498.67	60853.93
498.85	60989.68
499.03	61420.34
499.20	61694.18
499.38	61263.52
499.56	60659.66
499.73	60509.87
499.91	60299.22
500.08	59739.83
500.26	59608.76
500.44	60315.61
500.61	60608.17
500.79	60254.75
500.97	60233.69
501.14	59737.49
501.32	59482.37
501.49	59863.88
501.67	60420.93
501.84	60182.19
502.02	60739.24
502.20	61331.40
502.37	61144.16
502.55	61563.11
502.72	62340.17
502.90	62644.44
503.07	62213.78
503.25	61481.19
503.43	60537.96
503.60	60221.98
503.78	60032.40
503.95	60537.96
504.13	61752.69
504.30	62078.03
504.48	61162.88
504.65	61623.96
504.83	61661.41
505.01	62471.24
505.18	62693.59
505.36	63168.72
505.53	63086.80
505.71	62728.70
505.88	63334.90
506.06	62962.75
506.23	62557.84
506.41	62333.15
506.58	62365.91
506.76	62244.21
506.93	61607.58
507.11	61869.72
507.28	62087.39
507.46	61352.46
507.63	61535.02
507.81	61106.71
507.98	61506.94
508.16	62691.25
508.33	62422.09
508.50	62513.37
508.68	63199.15
508.85	63433.20
509.03	63494.05
509.20	63030.63
509.38	62267.61
509.55	62471.24
509.73	62691.25
509.90	62372.94
510.08	62520.39
510.25	62253.57
510.42	62042.92
510.60	62148.24
510.77	62979.14
510.95	62986.16
511.12	63332.56
511.30	64051.10
511.47	64142.38
511.64	63786.62
511.82	64032.38
511.99	63093.82
512.17	62761.47
512.34	62508.69
512.51	62651.46
512.69	62934.66
512.86	62543.80
513.04	62986.16
513.21	62239.53
513.38	61766.74
513.56	61443.74
513.73	60947.55
513.90	62145.90
514.08	61968.02
514.25	62031.22
514.43	62368.26
514.60	62489.96
514.77	62719.34
514.95	62827.00
515.12	62887.85
515.29	63039.99
515.47	63585.33
515.64	63458.94
515.81	63152.33
515.99	61965.68
516.16	60734.56
516.33	58705.32
516.51	58492.33
516.68	57141.84
516.85	56456.06
517.03	57972.73
517.20	60420.93
517.37	62230.16
517.54	62789.55
517.72	61689.50
517.89	58838.73
518.06	57378.23
518.24	58515.73
518.41	60619.88
518.58	61822.91
518.75	61715.25
518.93	61563.11
519.10	61160.54
519.27	62302.72
519.45	62614.01
519.62	63206.17
519.79	63231.91
519.96	62534.43
520.14	62386.98
520.31	61441.40
520.48	61471.83
520.65	62363.57
520.83	63641.51
521.00	63178.08
521.17	62602.31
521.34	62855.09
521.52	63117.23
521.69	63472.99
521.86	63735.13
522.03	63545.54
522.20	61900.15
522.38	61661.41
522.55	61949.30
522.72	62255.91
522.89	61731.63
523.07	62782.53
523.24	63168.72
523.41	63655.55
523.58	64041.74
523.75	64018.33
523.92	63985.57
524.10	63913.01
524.27	63437.88
524.44	63245.96
524.61	62518.05
524.78	63318.51
524.96	63311.49
525.13	63465.97
525.30	63786.62
525.47	64280.47
525.64	64058.12
525.81	63234.25
525.98	61656.73
526.16	60423.27
526.33	60472.42
526.50	59894.31
526.67	59945.80
526.84	60610.51
527.01	61705.88
527.18	61762.06
527.36	62408.04
527.53	63566.61
527.70	63147.65
527.87	61904.83
528.04	62724.02
528.21	63173.40
528.38	63770.24
528.55	64512.19
528.72	64198.55
528.89	63866.20
529.07	64025.35
529.24	62831.68
529.41	62625.71
529.58	62560.18
529.75	63419.16
529.92	63732.79
530.09	63627.46
530.26	64273.45
530.43	64846.88
530.60	63934.07
530.77	64598.79
530.94	64605.81
531.11	63786.62
531.28	63505.76
531.46	63557.25
531.63	63744.49
531.80	63634.48
531.97	63248.30
532.14	63000.20
532.31	61635.67
532.48	61085.64
532.65	61375.87
532.82	61874.40
532.99	63828.75
533.16	63580.65
533.33	63477.67
533.50	63838.11
533.67	63341.92
533.84	62944.03
534.01	63519.80
534.18	63149.99
534.35	62951.05
534.52	62312.08
534.69	63215.53
534.86	63494.05
535.03	63805.34
535.20	63877.90
535.37	64507.50
535.54	64706.45
535.71	64338.99
535.88	64434.95
536.05	62972.11
536.22	62733.38
536.38	62733.38
536.55	62234.84
536.72	61745.67
536.89	62417.41
537.06	62426.77
537.23	62789.55
537.40	62644.44
537.57	62485.28
537.74	62920.62
537.91	63000.20
538.08	63152.33
538.25	63304.47
538.42	64149.40
538.59	63522.14
538.75	62702.95
538.92	61961.00
539.09	62443.15
539.26	62129.52
539.43	62145.90
539.60	61968.02
539.77	62670.18
539.94	62274.63
540.11	61778.44
540.28	61240.12
540.44	61116.07
540.61	61235.44
540.78	61708.22
540.95	62164.63
541.12	62106.12
541.29	62391.66
541.46	62845.72
541.62	63065.73
541.79	62365.91
541.96	61867.38
542.13	62129.52
542.30	62103.77
542.47	62082.71
542.63	62606.99
542.80	62354.21
542.97	61771.42
543.14	61745.67
543.31	62052.28
543.48	62876.15
543.64	63159.36
543.81	63756.19
543.98	63669.59
544.15	62632.74
544.32	62887.85
544.48	62459.54
544.65	62487.62
544.82	63016.58
544.99	62005.47
545.16	61778.44
545.32	61785.46
545.49	62415.07
545.66	62588.27
545.83	62562.52
546.00	62761.47
546.16	62440.81
546.33	62246.55
546.50	62211.44
546.67	62899.56
546.83	62298.04
547.00	62929.98
547.17	61347.78
547.34	60825.84
547.50	60846.91
547.67	61769.08
547.84	62464.22
548.00	62649.12
548.17	62412.73
548.34	62747.42
548.51	62569.54
548.67	62410.38
548.84	62363.57
549.01	62745.08
549.18	62300.38
549.34	62391.66
549.51	62815.30
549.68	63056.37
549.84	62007.81
550.01	61443.74
550.18	61329.06
550.34	61853.34
550.51	62122.50
550.68	62410.38
550.84	62262.93
551.01	61289.27
551.18	61467.15
551.34	61525.66
551.51	62368.26
551.68	62539.11
551.84	63196.80
552.01	62333.15
552.18	61815.89
552.34	60973.30
552.51	61052.87
552.68	60921.80
552.84	61221.39
553.01	61609.92
553.18	61375.87
553.34	61516.30
553.51	62007.81
553.67	62014.83
553.84	62169.31
554.01	62504.01
554.17	61740.99
554.34	61752.69
554.51	61778.44
554.67	61317.35
554.84	61588.86
555.00	60917.12
555.17	61015.43
555.33	61120.75
555.50	60764.99
555.67	61570.13
555.83	61581.84
556.00	61008.40
556.16	60889.04
556.33	60666.69
556.50	60830.52
556.66	60846.91
556.83	60343.69
556.99	60236.03
557.16	60940.53
557.32	60563.70
557.49	61045.85
557.65	60945.21
557.82	60940.53
557.98	61298.63
558.15	60322.63
558.32	59819.41
558.48	59440.24
558.65	59330.24
558.81	59494.08
558.98	60566.04
559.14	60243.05
559.31	60329.65
559.47	59868.56
559.64	60074.53
559.80	59206.19
559.97	60107.30
560.13	60591.79
560.30	61766.74
560.46	61757.38
560.63	62176.33
560.79	61883.76
560.96	60914.78
561.12	60135.38
561.29	59941.12
561.45	59980.91
561.61	60764.99
561.78	60013.68
561.94	60310.92
562.11	60224.32
562.27	59606.42
562.44	60865.63
562.60	61130.11
562.77	60996.70
562.93	60313.26
563.10	60214.96
563.26	60456.04
563.42	60732.22
563.59	60699.45
563.75	60074.53
563.92	59793.67
564.08	59793.67
564.24	60434.97
564.41	59772.60
564.57	60931.17
564.74	60591.79
564.90	59962.18
565.07	59803.03
565.23	58798.94
565.39	58452.54
565.56	58681.91
565.72	59262.36
565.88	58450.20
566.05	60067.51
566.21	59856.86
566.38	59667.28
566.54	60067.51
566.70	60811.80
566.87	60189.22
567.03	59955.16
567.19	60863.29
567.36	61200.33
567.52	59781.96
567.68	59220.23
567.85	58899.58
568.01	59299.81
568.17	59185.13
568.34	59398.12
568.50	58686.59
568.66	58508.71
568.83	58361.26
568.99	58389.34
569.15	58632.76
569.32	58478.28
569.48	58555.52
569.64	58588.29
569.81	58532.12
569.97	58281.68
570.13	57586.54
570.30	57216.74
570.46	56786.08
570.62	56423.29
570.78	56474.79
570.95	57331.42
571.11	57851.02
571.27	57425.04
571.43	57811.23
571.60	57565.48
571.76	58489.99
571.92	58810.64
572.09	59079.80
572.25	58522.76
572.41	58506.37
572.57	58585.95
572.74	58925.33
572.90	59873.24
573.06	59327.90
573.22	59119.59
573.38	58997.88
573.55	60161.13
573.71	58698.30
573.87	58670.21
574.03	58855.11
574.20	58377.64
574.36	58000.82
574.52	57495.26
574.68	57705.91
574.84	57265.89
575.01	57052.90
575.17	56970.98
575.33	57591.22
575.49	57504.62
575.65	56757.99
575.82	57052.90
575.98	57312.70
576.14	58122.52
576.30	58660.85
576.46	57392.28
576.62	57497.60
576.79	57827.62
576.95	57591.22
577.11	58010.18
577.27	57598.24
577.43	58071.03
577.59	57418.02
577.75	56947.57
577.92	56631.60
578.08	56938.21
578.24	57158.22
578.40	57160.56
578.56	56090.94
578.72	56580.11
578.88	56376.48
579.04	56856.29
579.21	56664.37
579.37	56591.81
579.53	57235.46
579.69	56594.15
579.85	56233.71
580.01	56502.87
580.17	56023.06
580.33	56907.79
580.49	57523.35
580.65	56390.53
580.82	56729.90
580.98	57261.21
581.14	56959.28
581.30	56736.93
581.46	56214.99
581.62	56821.19
581.78	57415.68
581.94	57485.90
582.10	57443.77
582.26	57427.38
582.42	57228.44
582.58	56940.55
582.74	56928.85
582.90	56659.69
583.06	57216.74
583.22	57165.24
583.38	57141.84
583.54	57556.11
583.70	57399.30
583.86	57329.08
584.02	56392.87
584.18	56135.41
584.34	56280.52
584.50	55842.84
584.66	56114.34
584.82	56336.69
584.98	56310.95
585.14	55442.61
585.30	55613.47
585.46	54815.35
585.62	55461.33
585.78	55461.33
585.94	54850.45
586.10	55292.82
586.26	54410.43
586.42	55620.49
586.58	55281.11
586.74	55784.33
586.90	56095.62
587.06	55805.39
587.22	56729.90
587.38	56856.29
587.54	56037.11
587.70	55276.43
587.86	55620.49
588.02	55290.48
588.18	54988.55
588.34	53207.40
588.49	51320.93
588.65	49968.10
588.81	49638.08
588.97	48502.92
589.13	49151.25
589.29	50370.67
589.45	51161.77
589.61	51517.53
589.77	53645.08
589.93	54581.29
590.08	54894.92
590.24	54915.99
590.40	54782.58
590.56	54447.88
590.72	54492.35
590.88	53677.85
591.04	54555.55
591.20	53666.14
591.35	53705.93
591.51	53148.88
591.67	53097.39
591.83	53427.41
591.99	54272.34
592.15	54527.46
592.31	54120.21
592.46	53771.47
592.62	54232.55
592.78	54092.12
592.94	53017.82
593.10	53258.89
593.26	54939.39
593.41	53860.41
593.57	53982.12
593.73	53598.27
593.89	53682.53
594.05	52842.27
594.20	52809.51
594.36	51807.76
594.52	52383.53
594.68	52428.00
594.84	52781.42
594.99	54333.20
595.15	53542.10
595.31	53102.07
595.47	53343.15
595.62	54761.51
595.78	53109.10
595.94	53242.51
596.10	53205.06
596.25	53359.53
596.41	52734.61
596.57	52568.43
596.73	52994.41
596.88	52825.89
597.04	53228.46
597.20	53368.90
597.36	52552.05
597.51	53792.53
597.67	52348.42
597.83	52502.90
597.99	52519.28
598.14	51461.36
598.30	51444.98
598.46	51463.70
598.61	52048.83
598.77	51257.73
598.93	51608.81
599.09	51536.26
599.24	51737.54
599.40	52413.96
599.56	52811.85
599.71	52856.32
599.87	52704.18
600.03	52676.10
600.18	52329.70
600.34	51880.31
600.50	52397.57
600.65	52463.11
600.81	52364.81
600.97	50960.48
601.12	51437.95
601.28	52308.63
601.44	50995.59
601.59	52257.14
601.75	51934.15
601.91	52102.67
602.06	51608.81
602.22	51253.05
602.37	51983.30
602.53	52788.44
602.69	52243.10
602.84	51405.19
603.00	51786.69
603.16	52692.48
603.31	52648.01
603.47	52381.19
603.62	53361.87
603.78	52608.22
603.94	52409.28
604.09	52676.10
604.25	51718.82
604.40	51669.67
604.56	51030.70
604.71	51473.06
604.87	50691.32
605.03	50155.34
605.18	50284.07
605.34	50787.28
605.49	50373.01
605.65	50836.44
605.80	50913.67
605.96	50403.44
606.12	51215.60
606.27	51484.76
606.43	48577.82
606.58	49008.48
606.74	49296.36
606.89	49551.48
607.05	49750.43
607.20	50253.64
607.36	49535.10
607.51	49705.96
607.67	49432.11
607.82	49298.70
607.98	49621.70
608.13	48289.93
608.29	49200.40
608.44	49378.28
608.60	49638.08
608.75	49715.32
608.91	50864.52
609.06	49064.65
609.22	48903.15
609.37	48975.71
609.53	49851.07
609.68	48500.58
609.84	47250.74
609.99	47749.27
610.15	48123.75
610.30	49429.77
610.46	50300.45
610.61	48458.45
610.76	48044.18
610.92	47227.33
611.07	48718.25
611.23	50162.36
611.38	51009.64
611.54	51100.92
611.69	50251.30
611.84	48140.14
612.00	47980.98
612.15	47533.94
612.31	47620.54
612.46	47948.21
612.62	47138.39
612.77	46618.79
612.92	48011.41
613.08	47636.92
613.23	48985.07
613.39	48231.42
613.54	48034.81
613.69	46520.49
613.85	47707.14
614.00	47269.46
614.15	47838.21
614.31	47276.48
614.46	46450.27
614.62	48428.02
614.77	47662.67
614.92	46974.55
615.08	47498.83
615.23	46412.82
615.38	46712.41
615.54	47414.57
615.69	45661.51
615.84	44935.95
616.00	45511.72
616.15	46078.13
616.30	46110.89
616.46	46028.98
616.61	46012.59
616.76	47063.49
616.92	47203.92
617.07	47463.72
617.22	45848.75
617.37	45614.70
617.53	46590.70
617.68	45907.27
617.83	45382.99
617.99	46721.77
618.14	47192.22
618.29	47161.79
618.45	45670.87
618.60	46103.87
618.75	45336.18
618.90	45041.27
619.06	46284.09
619.21	47414.57
619.36	46574.32
619.51	46473.68
619.67	48158.86
619.82	49155.93
619.97	48781.45
620.12	46824.76
620.28	46302.82
620.43	46232.60
620.58	46387.08
620.73	47295.21
620.89	46036.00
621.04	44615.29
621.19	44566.14
621.34	44676.15
621.49	44055.90
621.65	44823.60
621.80	45357.24
621.95	45186.38
622.10	45261.28
622.25	44896.16
622.41	41680.26
622.56	42546.26
622.71	42873.93
622.86	43847.60
623.01	43346.72
623.16	43442.68
623.32	43594.82
623.47	43339.70
623.62	42279.44
623.77	42403.49
623.92	42319.23
624.07	41640.47
624.23	41684.94
624.38	42274.76
624.53	42452.64
624.68	43028.41
624.83	41741.11
624.98	42052.41
625.13	41141.94
625.29	41298.75
625.44	42337.95
625.59	42480.72
625.74	42799.04
625.89	41607.70
626.04	42155.39
626.19	43833.55
626.34	42492.43
626.49	41731.75
626.65	41708.35
626.80	41965.81
626.95	40973.42
627.10	39562.08
627.25	39864.00
627.40	39578.46
627.55	38951.20
627.70	37933.06
627.85	39344.41
628.00	39012.05
628.15	39384.19
628.30	40027.84
628.45	40002.10
628.60	39145.46
628.76	38888.00
628.91	38689.06
629.06	38132.01
629.21	40126.14
629.36	40353.18
629.51	38972.26
629.66	36308.73
629.81	37069.40
629.96	37869.87
630.11	38880.98
630.26	39002.69
630.41	40727.66
630.56	40989.80
630.71	40243.17
630.86	39388.88
631.01	37930.72
631.16	37783.27
631.31	37881.57
631.46	38064.13
631.61	37446.23
631.76	37722.41
631.91	38838.85
632.06	38850.55
632.21	40023.16
632.36	40737.02
632.51	40378.92
632.66	39784.43
632.81	39632.29
632.96	40332.11
633.10	39370.15
633.25	38218.61
633.40	36828.33
633.55	37539.85
633.70	38136.69
633.85	37228.56
634.00	37432.19
634.15	38106.26
634.30	38534.58
634.45	38621.18
634.60	37975.19
634.75	37296.44
634.90	37593.68
635.05	38778.00
635.19	38707.78
635.34	38768.63
635.49	37441.55
635.64	37617.09
635.79	38763.95
635.94	39236.74
636.09	38499.47
636.24	37785.61
636.39	37827.74
636.53	37095.15
636.68	37481.34
636.83	36432.78
636.98	37195.79
637.13	36935.99
637.28	37535.17
637.43	38094.56
637.57	38731.18
637.72	37893.27
637.87	38108.60
638.02	38012.64
638.17	39604.20
638.32	39515.26
638.46	38169.46
638.61	36196.38
638.76	36390.65
638.91	37809.01
639.06	37364.31
639.20	36350.86
639.35	35314.00
639.50	35257.83
639.65	36367.24
639.80	34939.52
639.94	35800.83
640.09	36971.10
640.24	35257.83
640.39	35342.09
640.54	34810.79
640.68	35676.79
640.83	35211.02
640.98	36149.57
641.13	35096.33
641.27	35948.29
641.42	34684.40
641.57	34267.78
641.72	35281.24
641.86	35517.63
642.01	35835.94
642.16	35672.10
642.31	35571.46
642.45	35938.93
642.60	35683.81
642.75	35159.53
642.90	34855.26
643.04	35620.61
643.19	34775.68
643.34	35196.98
643.48	34426.94
643.63	35456.78
643.78	33680.31
643.93	33696.69
644.07	34003.30
644.22	34501.84
644.37	34096.92
644.51	34227.99
644.66	35061.22
644.81	34735.89
644.95	35332.73
645.10	35379.54
645.25	34637.59
645.39	34539.29
645.54	34178.84
645.69	32488.98
645.83	33027.30
645.98	31508.29
646.13	31236.79
646.27	30761.66
646.42	30551.01
646.57	30728.89
646.71	31178.28
646.86	31854.69
647.00	30712.51
647.15	30888.05
647.30	31915.54
647.44	32620.05
647.59	32072.36
647.74	31648.72
647.88	31538.72
648.03	31508.29
648.17	32364.93
648.32	33385.40
648.47	34015.01
648.61	33303.48
648.76	33607.75
648.90	32732.39
649.05	31957.67
649.20	30342.70
649.34	29165.42
649.49	29593.73
649.63	30864.64
649.78	31948.31
649.92	31639.36
650.07	30899.75
650.21	30520.59
650.36	31791.50
650.51	31906.18
650.65	30953.58
650.80	30892.73
650.94	30719.53
651.09	30759.32
651.23	29687.36
651.38	30160.14
651.52	31124.44
651.67	30483.14
651.81	30539.31
651.96	31077.63
652.10	33046.02
652.25	32100.45
652.39	31765.75
652.54	30824.86
652.68	30052.48
652.83	30045.46
652.97	29116.26
653.12	29013.28
653.26	30232.70
653.41	30483.14
653.55	30527.61
653.70	29923.75
653.84	29888.64
653.99	30675.06
654.13	30101.63
654.27	30443.35
654.42	29230.95
654.56	28393.04
654.71	28905.62
654.85	29699.06
655.00	30005.67
655.14	29102.22
655.29	27971.74
655.43	26925.52
655.57	25149.06
655.72	22546.38
655.86	21500.16
656.01	21706.13
656.15	22998.10
656.30	24229.23
656.44	25544.61
656.58	26022.08
656.73	28039.62
656.87	28449.21
657.01	28074.73
657.16	27831.31
657.30	28142.60
657.45	28680.92
657.59	28006.85
657.73	27901.53
657.88	27143.19
658.02	27402.99
658.16	28294.74
658.31	28217.50
658.45	27681.52
658.60	27578.53
658.74	28444.53
658.88	29010.94
659.03	27674.49
659.17	27412.35
659.31	26958.29
659.46	26799.13
659.60	28013.87
659.74	27798.54
659.89	28430.49
660.03	29448.62
660.17	27665.13
660.32	27988.13
660.46	27775.14
660.60	28369.63
660.74	29263.72
660.89	29343.30
661.03	27077.66
661.17	28009.19
661.32	28545.17
661.46	28954.77
661.60	28460.91
661.74	27871.10
661.89	28451.55
662.03	28119.20
662.17	27218.09
662.31	28093.45
662.46	28512.41
662.60	27920.25
662.74	26731.26
662.88	26862.33
663.03	27985.79
663.17	27957.70
663.31	26221.02
663.45	27187.66
663.60	26764.03
663.74	25509.50
663.88	26204.64
664.02	26796.79
664.17	26443.37
664.31	25326.94
664.45	25743.55
664.59	25532.90
664.73	26038.46
664.88	25418.22
665.02	24945.43
665.16	25350.34
665.30	26305.28
665.44	27489.59
665.59	27730.67
665.73	27054.25
665.87	25825.47
666.01	25312.89
666.15	25137.35
666.29	24362.64
666.44	25034.37
666.58	24645.84
666.72	26108.68
666.86	27131.49
667.00	27082.34
667.14	27718.96
667.28	26022.08
667.43	25916.75
667.57	25483.75
667.71	25453.33
667.85	25373.75
667.99	24304.12
668.13	23995.17
668.27	24446.90
668.41	24063.05
668.56	25933.14
668.70	26087.61
668.84	26019.74
668.98	27103.40
669.12	25937.82
669.26	24896.28
669.40	25209.91
669.54	24690.31
669.68	24376.68
669.82	23859.42
669.96	25017.99
670.10	25996.33
670.25	25965.90
670.39	25462.69
670.53	25465.03
670.67	23924.96
670.81	23314.08
670.95	23030.87
671.09	23070.66
671.23	23101.09
671.37	22895.12
671.51	23283.65
671.65	23850.06
671.79	23606.64
671.93	23962.40
672.07	23351.52
672.21	23033.21
672.35	22361.48
672.49	22757.03
672.63	23405.36
672.77	23124.49
672.91	23115.13
673.05	22860.01
673.19	22309.99
673.33	23269.61
673.47	24545.20
673.61	23777.50
673.75	23103.43
673.89	22717.24
674.03	22026.78
674.17	21589.10
674.31	21898.05
674.45	22349.78
674.59	22597.87
674.73	22244.45
674.87	21841.88
675.01	21546.97
675.15	21766.98
675.29	22242.11
675.43	21820.81
675.56	21539.95
675.70	21305.90
675.84	21069.50
675.98	21280.15
676.12	21465.05
676.26	21085.89
676.40	20652.89
676.54	20636.50
676.68	20608.42
676.82	20372.02
676.96	21359.73
677.10	21003.97
677.23	21352.71
677.37	21977.63
677.51	21256.75
677.65	20615.44
677.79	19360.91
677.93	18618.96
678.07	18871.74
678.21	19623.05
678.34	19751.78
678.48	19878.17
678.62	19529.43
678.76	20112.22
678.90	20112.22
679.04	19566.88
679.18	19346.87
679.31	19131.54
679.45	19360.91
679.59	19271.97
679.73	19508.37
679.87	20252.66
680.00	20240.95
680.14	19922.64
680.28	19807.95
680.42	19491.98
680.56	19110.47
680.70	18869.40
680.83	19126.86
680.97	18661.09
681.11	19030.90
681.25	18508.96
681.39	18483.21
681.52	18326.39
681.66	18429.38
681.80	17755.30
681.94	17603.17
682.07	17607.85
682.21	17713.17
682.35	18183.62
682.49	17874.67
682.62	18647.05
682.76	18597.90
682.90	17699.13
683.04	17542.32
683.17	16739.51
683.31	17003.99
683.45	17081.23
683.59	17329.33
683.72	16582.70
683.86	16924.41
684.00	16093.52
684.13	15852.45
684.27	15915.64
684.41	16673.98
684.55	17270.81
684.68	17298.90
684.82	16898.67
684.96	16470.35
685.09	16493.76
685.23	16498.44
685.37	16173.10
685.50	15733.08
685.64	16046.71
685.78	15332.85
685.91	15201.78
686.05	15754.15
686.19	15480.30
686.32	14307.69
686.46	12491.44
686.60	10995.84
686.73	10277.29
686.87	9069.58
687.01	9362.14
687.14	10017.49
687.28	9818.55
687.42	10604.97
687.55	11372.66
687.69	11417.13
687.82	12315.90
687.96	12844.86
688.10	12910.40
688.23	13191.26
688.37	12250.36
688.50	12493.78
688.64	12065.46
688.78	11728.42
688.91	12198.87
689.05	11969.50
689.18	11939.07
689.32	12528.89
689.46	12409.52
689.59	12264.41
689.73	12809.75
689.86	12465.69
690.00	12388.46
690.13	12376.75
690.27	11969.50
690.41	12231.64
690.54	12058.44
690.68	12397.82
690.81	12568.68
690.95	12259.73
691.08	12475.06
691.22	12404.84
691.35	12615.49
691.49	12622.51
691.62	12814.43
691.76	12931.46
691.89	12067.80
692.03	11426.50
692.16	11529.48
692.30	12163.76
692.43	12341.64
692.57	11871.20
692.70	11690.98
692.84	11492.03
692.97	11651.19
693.11	12362.71
693.24	12156.74
693.38	11133.93
693.51	11705.02
693.65	11576.29
693.78	11098.82
693.92	11384.37
694.05	11431.18
694.19	11475.65
694.32	11117.54
694.45	11178.40
694.59	11728.42
694.72	11279.04
694.86	11002.86
694.99	11382.03
695.13	10846.04
695.26	10314.74
695.39	10473.90
695.53	9837.27
695.66	9900.47
695.80	10485.60
695.93	10771.15
696.07	10204.74
696.20	10558.16
696.33	10778.17
696.47	11183.08
696.60	10841.36
696.73	11087.12
696.87	11124.57
697.00	11318.83
697.14	11587.99
697.27	10920.94
697.40	10328.78
697.54	10073.67
697.67	9785.78
697.80	10415.38
697.94	10202.40
698.07	9446.40
698.21	9043.83
698.34	9708.54
698.47	9827.91
698.61	9469.81
698.74	9680.46
698.87	9415.98
699.01	9310.65
699.14	9296.61
699.27	9060.21
699.40	9755.35
699.54	9645.35
699.67	9729.61
699.80	9806.84
699.94	9802.16
700.07	9460.45
700.20	8807.44
700.34	8978.30
700.47	9057.87
700.60	9100.00
700.73	9008.72
700.87	8423.59
701.00	7822.07
701.13	8009.31
701.26	8634.24
701.40	8294.86
701.53	8255.07
701.66	8865.95
701.79	8716.16
701.93	8772.33
702.06	8788.71
702.19	8395.50
702.32	8037.40
702.46	8269.11
702.59	8334.65
702.72	8329.97
702.85	8292.52
702.99	8067.83
703.12	8114.64
703.25	8320.60
703.38	8053.78
703.51	8079.53
703.65	8119.32
703.78	8245.71
703.91	8039.74
704.04	8409.54
704.17	8271.45
704.31	8285.50
704.44	8236.35
704.57	8416.57
704.70	8549.98
704.83	8751.26
704.96	8781.69
705.10	8231.66
705.23	8383.80
>>>>>End Processed Spectral Data<<<<<
