SpectraSuite Data File
++++++++++++++++++++++++++++++++++++
Date: Mon Oct 07 14:53:36 GMT-05:00 2013
User: price-jones
Dark Spectrum Present: No
Reference Spectrum Present: No
Number of Sampled Component Spectra: 1
Spectrometers: USB2+H05261
Integration Time (usec): 100000 (USB2+H05261)
Spectra Averaged: 1 (USB2+H05261)
Boxcar Smoothing: 0 (USB2+H05261)
Correct for Electrical Dark: No (USB2+H05261)
Strobe/Lamp Enabled: No (USB2+H05261)
Correct for Detector Non-linearity: No (USB2+H05261)
Correct for Stray Light: No (USB2+H05261)
Number of Pixels in Processed Spectrum: 2048
>>>>>Begin Processed Spectral Data<<<<<
365.73	0.00
365.92	0.00
366.12	0.00
366.32	0.00
366.52	0.00
366.72	0.00
366.91	0.00
367.11	0.00
367.31	0.00
367.51	0.00
367.70	0.00
367.90	0.00
368.10	0.00
368.30	0.00
368.49	0.00
368.69	0.00
368.89	0.00
369.09	0.00
369.28	0.00
369.48	0.00
369.68	0.00
369.87	0.00
370.07	0.00
370.27	0.00
370.47	751.31
370.66	3543.57
370.86	4140.41
371.06	4533.62
371.25	4648.30
371.45	4252.75
371.65	3590.38
371.84	3508.46
372.04	3779.97
372.24	4072.53
372.44	4318.29
372.63	4203.60
372.83	3918.06
373.03	3386.76
373.22	3155.04
373.42	3211.22
373.62	3875.93
373.81	4287.86
374.01	4152.11
374.21	3824.44
374.40	3524.85
374.60	3684.00
374.79	4159.13
374.99	4933.85
375.19	5256.84
375.38	5256.84
375.58	4870.65
375.78	4788.74
375.97	4821.50
376.17	5111.73
376.37	5076.62
376.56	5219.39
376.76	5537.71
376.95	5837.30
377.15	6274.98
377.35	6476.26
377.54	6771.17
377.74	6904.58
377.93	6960.75
378.13	6616.69
378.33	6310.08
378.52	5987.09
378.72	5738.99
378.91	5526.00
379.11	5579.84
379.31	5315.36
379.50	5280.25
379.70	5614.95
379.89	6319.45
380.09	6565.20
380.28	6773.51
380.48	6892.88
380.68	6635.42
380.87	6604.99
381.07	6148.59
381.26	5584.52
381.46	5238.12
381.65	5261.52
381.85	4887.04
382.04	4755.97
382.24	4308.93
382.43	4341.69
382.63	4070.19
382.83	4046.79
383.02	4215.30
383.22	4194.24
383.41	4217.65
383.61	4381.48
383.80	4966.62
384.00	5795.17
384.19	6450.52
384.39	6878.83
384.58	6679.89
384.78	6389.66
384.97	6705.63
385.17	6108.80
385.36	5963.68
385.56	5577.50
385.75	5891.13
385.95	6485.62
386.14	7033.31
386.34	6949.05
386.53	6705.63
386.72	6345.19
386.92	6347.53
387.11	6490.31
387.31	7056.72
387.50	6974.80
387.70	6647.12
387.89	6516.05
388.09	6651.80
388.28	6768.83
388.48	6712.66
388.67	7155.02
388.86	8205.92
389.06	8461.04
389.25	8973.61
389.45	9013.40
389.64	9020.42
389.84	8931.48
390.03	8898.72
390.22	8908.08
390.42	9303.63
390.61	9816.21
390.81	10242.18
391.00	10403.68
391.19	10424.75
391.39	10040.90
391.58	9533.00
391.78	8861.27
391.97	8645.94
392.16	8093.57
392.36	7363.33
392.55	5846.66
392.75	4800.44
392.94	3929.76
393.13	3768.26
393.33	4372.12
393.52	5804.53
393.71	6979.48
393.91	7943.78
394.10	8650.62
394.29	9228.73
394.49	10260.91
394.68	10991.16
394.88	11211.17
395.07	11367.98
395.26	11323.51
395.46	10731.36
395.65	10281.97
395.84	9151.49
396.04	7646.53
396.23	6305.40
396.42	5256.84
396.62	4784.06
396.81	5715.59
397.00	7573.97
397.19	9357.46
397.39	11342.24
397.58	12451.65
397.77	13348.08
397.97	13951.93
398.16	14008.11
398.35	14274.93
398.55	14892.83
398.74	15267.31
398.93	15929.69
399.12	15566.90
399.32	14750.06
399.51	15204.12
399.70	16238.64
399.90	16112.25
400.09	16189.49
400.28	15803.30
400.47	16030.33
400.67	16971.22
400.86	17298.90
401.05	17350.39
401.24	17315.28
401.44	17640.62
401.63	17598.49
401.82	17776.37
402.01	18085.32
402.21	18012.76
402.40	18029.15
402.59	17575.08
402.78	16814.41
402.97	16264.38
403.17	17083.57
403.36	18139.15
403.55	18647.05
403.74	18904.51
403.93	18480.87
404.13	16617.80
404.32	16194.17
404.51	17013.35
404.70	18441.08
404.89	18361.50
405.09	18050.21
405.28	17893.40
405.47	17659.34
405.66	17804.46
405.85	17315.28
406.05	16753.55
406.24	16695.04
406.43	17561.04
406.62	18356.82
406.81	18333.42
407.00	17923.82
407.20	17429.97
407.39	17373.80
407.58	18457.46
407.77	18941.96
407.96	19590.28
408.15	19908.60
408.34	20112.22
408.54	20678.63
408.73	20837.79
408.92	20882.26
409.11	20365.00
409.30	19276.65
409.49	18012.76
409.68	16922.07
409.87	16379.07
410.07	17132.72
410.26	18789.82
410.45	20013.92
410.64	20589.69
410.83	20929.07
411.02	21249.72
411.21	21853.58
411.40	21706.13
411.59	22092.32
411.78	21802.09
411.98	21797.41
412.17	22235.09
412.36	21694.43
412.55	21703.79
412.74	21219.30
412.93	20765.23
413.12	20882.26
413.31	22955.97
413.50	23278.97
413.69	23651.11
413.88	22618.94
414.07	21905.07
414.26	22129.77
414.45	23227.48
414.64	22970.02
414.83	23323.44
415.02	22759.37
415.22	22590.85
415.41	23208.75
415.60	23700.26
415.79	25106.93
415.98	25362.04
416.17	25411.20
416.36	24802.66
416.55	24624.78
416.74	24018.58
416.93	23229.82
417.12	23117.47
417.31	23257.90
417.50	23374.93
417.69	24570.94
417.88	24231.57
418.07	24219.86
418.26	23721.33
418.45	23997.51
418.64	24903.30
418.83	25905.05
419.02	25521.20
419.21	25418.22
419.39	24257.31
419.58	22925.55
419.77	22970.02
419.96	23969.43
420.15	25373.75
420.34	26066.55
420.53	27021.48
420.72	27328.10
420.91	27290.65
421.10	27154.90
421.29	26515.93
421.48	25577.37
421.67	27199.37
421.86	26455.08
422.05	24549.88
422.24	22274.88
422.43	21738.90
422.61	23957.72
422.80	26206.98
422.99	25965.90
423.18	25287.15
423.37	24828.40
423.56	24666.91
423.75	25172.46
423.94	25797.38
424.13	24252.63
424.32	24620.10
424.50	24706.70
424.69	24311.14
424.88	24465.62
425.07	24442.21
425.26	24245.61
425.45	24254.97
425.64	23597.28
425.83	23510.68
426.01	24809.68
426.20	25781.00
426.39	25439.28
426.58	23737.71
426.77	21912.10
426.96	21591.44
427.15	21738.90
427.33	23690.90
427.52	24833.08
427.71	24559.24
427.90	24346.25
428.09	24100.50
428.28	23924.96
428.46	23168.96
428.65	22558.08
428.84	23138.54
429.03	23648.77
429.22	22483.19
429.40	21104.61
429.59	19351.55
429.78	16992.29
429.97	17228.68
430.16	16982.93
430.34	17504.87
430.53	17060.16
430.72	17664.02
430.91	19358.57
431.10	22616.60
431.28	26874.03
431.47	29013.28
431.66	29455.64
431.85	26955.95
432.03	24730.10
432.22	23377.27
432.41	24549.88
432.60	27166.60
432.79	28278.35
432.97	28786.25
433.16	28446.87
433.35	26150.81
433.54	23803.25
433.72	21699.11
433.91	22221.05
434.10	25055.43
434.28	27087.02
434.47	28627.09
434.66	28187.07
434.85	27648.75
435.03	27222.77
435.22	28278.35
435.41	29446.28
435.59	29411.17
435.78	30012.69
435.97	30328.66
436.16	30766.34
436.34	30265.47
436.53	29989.28
436.72	29699.06
436.90	28364.95
437.09	28285.37
437.28	27550.45
437.46	29221.59
437.65	28755.82
437.84	26712.53
438.02	24428.17
438.21	24149.65
438.40	25979.95
438.58	28496.02
438.77	28357.93
438.96	28694.97
439.14	30120.35
439.33	30609.53
439.52	31363.18
439.70	30639.95
439.89	29930.77
440.08	29223.93
440.26	29324.57
440.45	30113.33
440.63	31842.99
440.82	33432.21
441.01	33165.39
441.19	32907.93
441.38	33406.47
441.57	34256.08
441.75	35431.03
441.94	35356.13
442.12	34771.00
442.31	35571.46
442.50	35487.20
442.68	35414.65
442.87	35005.05
443.05	34068.84
443.24	34878.66
443.43	35182.93
443.61	36184.68
443.80	36704.28
443.98	34534.60
444.17	34125.01
444.35	36589.59
444.54	37017.91
444.73	37069.40
444.91	35166.55
445.10	34206.93
445.28	32561.53
445.47	31880.44
445.65	32409.40
445.84	32992.19
446.02	33947.13
446.21	34443.32
446.39	34724.19
446.58	34927.81
446.77	35789.13
446.95	36163.62
447.14	37261.33
447.32	37963.49
447.51	36432.78
447.69	35690.83
447.88	35271.87
448.06	35278.89
448.25	36299.37
448.43	36687.90
448.62	35590.19
448.80	36114.47
448.99	35885.09
449.17	36385.97
449.36	35924.88
449.54	37565.60
449.73	37766.88
449.91	39096.31
450.10	39426.32
450.28	40072.31
450.46	40105.08
450.65	40493.61
450.83	39552.71
451.02	38586.07
451.20	38766.29
451.39	38546.28
451.57	38527.56
451.76	38218.61
451.94	38597.77
452.13	37560.92
452.31	35765.73
452.49	34656.31
452.68	34567.37
452.86	34660.99
453.05	35131.44
453.23	35854.67
453.42	36816.63
453.60	37647.52
453.78	37972.85
453.97	37820.72
454.15	38075.84
454.34	36982.80
454.52	37769.22
454.70	36404.69
454.89	36629.38
455.07	37205.16
455.26	37961.15
455.44	38763.95
455.62	39962.31
455.81	39594.84
455.99	39489.52
456.17	39061.20
456.36	39213.34
456.54	40439.78
456.73	40208.06
456.91	41195.77
457.09	40781.49
457.28	41373.65
457.46	40432.75
457.64	39931.88
457.83	38993.32
458.01	37841.78
458.19	39363.13
458.38	39321.00
458.56	40617.66
458.74	40109.76
458.93	39695.49
459.11	39423.98
459.29	39014.39
459.48	38911.41
459.66	38960.56
459.84	39641.65
460.03	40608.29
460.21	40205.72
460.39	41270.67
460.57	41212.15
460.76	41305.77
460.94	41961.12
461.12	41027.25
461.31	41254.28
461.49	41261.30
461.67	41368.97
461.85	41621.75
462.04	41755.16
462.22	42824.78
462.40	42527.53
462.59	41998.57
462.77	41984.53
462.95	41914.31
463.13	41516.42
463.32	41195.77
463.50	40760.43
463.68	41392.37
463.86	41326.84
464.05	40947.67
464.23	39707.19
464.41	39349.09
464.59	38979.28
464.78	40774.47
464.96	40556.80
465.14	40158.91
465.32	41298.75
465.50	42129.64
465.69	42644.56
465.87	41832.39
466.05	40886.82
466.23	39655.70
466.41	38073.49
466.60	38962.90
466.78	39321.00
466.96	39655.70
467.14	40566.16
467.32	41219.17
467.51	41443.87
467.69	39182.91
467.87	40105.08
468.05	40531.06
468.23	40933.63
468.41	40652.76
468.60	40917.25
468.78	41219.17
468.96	40526.38
469.14	41577.28
469.32	41628.77
469.50	40175.30
469.69	40442.12
469.87	39775.06
470.05	39515.26
470.23	39651.02
470.41	39938.90
470.59	40467.86
470.77	40378.92
470.95	40952.35
471.14	41413.44
471.32	41937.72
471.50	44158.89
471.68	44168.25
471.86	44154.21
472.04	44329.75
472.22	44765.09
472.40	42967.55
472.58	42260.71
472.77	41638.13
472.95	42862.23
473.13	43636.95
473.31	42789.67
473.49	43049.47
473.67	43540.99
473.85	43807.81
474.03	44725.30
474.21	44739.34
474.39	45429.80
474.57	45972.80
474.75	45324.47
474.93	45591.30
475.12	44659.76
475.30	44854.03
475.48	44463.16
475.66	45209.79
475.84	44402.30
476.02	44577.84
476.20	43271.82
476.38	44596.57
476.56	45556.19
476.74	46384.74
476.92	46391.76
477.10	47004.98
477.28	48320.36
477.46	48566.12
477.64	48779.10
477.82	48935.92
478.00	48657.40
478.18	48165.88
478.36	47959.92
478.54	48240.78
478.72	48500.58
478.90	49258.91
479.08	50052.36
479.26	50810.69
479.44	50639.83
479.62	50277.05
479.80	50452.59
479.98	50438.54
480.16	51044.74
480.34	50578.98
480.52	50761.54
480.70	50686.64
480.88	51138.36
481.06	51791.37
481.24	51861.59
481.41	52488.85
481.59	53151.23
481.77	52750.99
481.95	52240.76
482.13	52411.62
482.31	52310.97
482.49	53172.29
482.67	52568.43
482.85	53027.18
483.03	53415.71
483.21	53666.14
483.39	53813.60
483.57	53127.82
483.74	52846.96
483.92	52985.05
484.10	53116.12
484.28	54136.59
484.46	54085.10
484.64	54616.40
484.82	54007.86
485.00	53191.01
485.18	53085.69
485.35	51842.87
485.53	49071.67
485.71	45539.80
485.89	44729.98
486.07	47089.24
486.25	50110.87
486.43	51901.38
486.61	52858.66
486.78	52774.40
486.96	52835.25
487.14	53815.94
487.32	55035.36
487.50	55503.46
487.68	55980.93
487.85	56868.00
488.03	56697.14
488.21	56301.59
488.39	55632.19
488.57	55327.92
488.75	55056.42
488.92	55828.80
489.10	57371.21
489.28	58592.97
489.46	59243.64
489.64	58848.09
489.81	59182.79
489.99	58824.68
490.17	58862.13
490.35	59276.41
490.53	58770.85
490.70	58457.22
490.88	58358.92
491.06	59124.27
491.24	59253.00
491.41	58447.86
491.59	57109.07
491.77	56435.00
491.95	57350.15
492.13	58220.83
492.30	59173.42
492.48	60243.05
492.66	60594.13
492.84	60348.37
493.01	60240.71
493.19	59894.31
493.37	59519.82
493.54	58997.88
493.72	59817.07
493.90	60519.23
494.08	61312.67
494.25	61331.40
494.43	61556.09
494.61	61970.36
494.79	62127.18
494.96	61750.35
495.14	61310.33
495.32	60406.89
495.49	59915.37
495.67	60977.98
495.85	62082.71
496.02	62489.96
496.20	62328.47
496.38	61822.91
496.55	61806.53
496.73	62195.06
496.91	62258.25
497.09	62827.00
497.26	63138.29
497.44	62443.15
497.62	62028.88
497.79	61425.02
497.97	60233.69
498.14	60383.48
498.32	61371.19
498.50	62148.24
498.67	62754.44
498.85	62508.69
499.03	62679.55
499.20	62841.04
499.38	62913.60
499.56	62707.63
499.73	62438.47
499.91	62108.46
500.08	61822.91
500.26	60900.74
500.44	61291.61
500.61	62047.60
500.79	62000.79
500.97	61499.92
501.14	61298.63
501.32	61277.57
501.49	61277.57
501.67	61544.39
501.84	62033.56
502.02	62108.46
502.20	62447.83
502.37	62473.58
502.55	62354.21
502.72	63208.51
502.90	63332.56
503.07	63316.17
503.25	62890.19
503.43	62209.10
503.60	61483.53
503.78	60959.25
503.95	61474.17
504.13	62401.02
504.30	63400.43
504.48	63344.26
504.65	62934.66
504.83	62838.70
505.01	63269.36
505.18	63557.25
505.36	64149.40
505.53	64044.08
505.71	64523.89
505.88	64587.08
506.06	63896.62
506.23	63749.17
506.41	63344.26
506.58	63620.44
506.76	63503.42
506.93	63381.71
507.11	63302.13
507.28	63646.19
507.46	63023.61
507.63	62431.45
507.81	62314.42
507.98	62499.33
508.16	63337.24
508.33	63620.44
508.50	63990.25
508.68	64233.66
508.85	64757.94
509.03	64587.08
509.20	64547.29
509.38	63917.69
509.55	63306.81
509.73	63161.70
509.90	63702.36
510.08	64161.11
510.25	63985.57
510.42	63814.71
510.60	63615.76
510.77	63913.01
510.95	64355.37
511.12	64521.55
511.30	64816.46
511.47	64982.63
511.64	64891.35
511.82	64825.82
511.99	64074.51
512.17	63620.44
512.34	63180.42
512.51	63557.25
512.69	63540.86
512.86	63657.89
513.04	64191.53
513.21	63971.52
513.38	63669.59
513.56	63112.55
513.73	62660.82
513.90	63089.14
514.08	63009.56
514.25	63290.43
514.43	63465.97
514.60	63412.13
514.77	63697.68
514.95	63859.18
515.12	63723.43
515.29	63875.56
515.47	64395.16
515.64	64507.50
515.81	64182.17
515.99	63674.27
516.16	62616.35
516.33	60427.95
516.51	59159.38
516.68	58719.36
516.85	58258.27
517.03	58599.99
517.20	60612.85
517.37	63000.20
517.54	63941.10
517.72	63456.60
517.89	61420.34
518.06	59351.30
518.24	59559.61
518.41	61340.76
518.58	62504.01
518.75	62742.74
518.93	62878.49
519.10	62674.87
519.27	63035.31
519.45	63327.87
519.62	63898.97
519.79	64233.66
519.96	64219.62
520.14	63767.90
520.31	62983.82
520.48	63021.26
520.65	63360.64
520.83	64133.02
521.00	64390.48
521.17	63943.44
521.34	63756.19
521.52	63852.15
521.69	64467.72
521.86	65006.04
522.03	64577.72
522.20	63810.03
522.38	62707.63
522.55	62611.67
522.72	63283.40
522.89	63421.50
523.07	63468.31
523.24	63819.39
523.41	64591.76
523.58	64933.48
523.75	65043.49
523.92	65080.94
524.10	64999.02
524.27	65158.17
524.44	64879.65
524.61	64676.02
524.78	64514.53
524.96	64441.97
525.13	64453.67
525.30	64760.28
525.47	65235.41
525.64	64954.55
525.81	64301.54
525.98	63084.46
526.16	62047.60
526.33	61380.55
526.50	60961.59
526.67	60690.09
526.84	61193.31
527.01	62192.72
527.18	62979.14
527.36	63575.97
527.53	64353.03
527.70	64509.85
527.87	64278.13
528.04	63728.11
528.21	64034.72
528.38	64776.67
528.55	65300.95
528.72	65478.83
528.89	65535.00
529.07	65413.29
529.24	64830.50
529.41	64140.04
529.58	63861.52
529.75	63590.01
529.92	64324.94
530.09	64566.02
530.26	64832.84
530.43	65197.96
530.60	65127.75
530.77	65469.46
530.94	65535.00
531.11	65165.20
531.28	64790.71
531.46	64715.81
531.63	64973.27
531.80	64734.54
531.97	64402.18
532.14	63758.53
532.31	62929.98
532.48	62113.14
532.65	62209.10
532.82	63004.88
532.99	64006.63
533.16	64257.07
533.33	64905.40
533.50	64633.89
533.67	63910.67
533.84	63501.07
534.01	63709.38
534.18	64044.08
534.35	64207.92
534.52	63999.61
534.69	64273.45
534.86	64526.23
535.03	64935.82
535.20	65195.62
535.37	65532.66
535.54	65490.53
535.71	65300.95
535.88	65013.06
536.05	64252.39
536.22	64245.36
536.38	63662.57
536.55	63346.60
536.72	62838.70
536.89	62836.36
537.06	63552.57
537.23	64243.02
537.40	64360.05
537.57	64509.85
537.74	64037.06
537.91	64306.22
538.08	64163.45
538.25	64236.00
538.42	64505.16
538.59	64371.75
538.75	63746.83
538.92	63664.91
539.09	63337.24
539.26	63154.68
539.43	63000.20
539.60	62967.43
539.77	63206.17
539.94	63241.28
540.11	62681.89
540.28	61897.81
540.44	62237.19
540.61	62401.02
540.78	62604.65
540.95	62990.84
541.12	63327.87
541.29	63519.80
541.46	63763.21
541.62	63732.79
541.79	63501.07
541.96	63147.65
542.13	63210.85
542.30	63260.00
542.47	63484.69
542.63	63318.51
542.80	63208.51
542.97	63505.76
543.14	63175.74
543.31	63222.55
543.48	63552.57
543.64	64338.99
543.81	64659.64
543.98	64477.08
544.15	63847.47
544.32	63255.32
544.48	63344.26
544.65	63934.07
544.82	64065.14
544.99	63810.03
545.16	63561.93
545.32	63250.64
545.49	63854.50
545.66	64231.32
545.83	63877.90
546.00	63585.33
546.16	63206.17
546.33	63339.58
546.50	63353.62
546.67	63898.97
546.83	63606.40
547.00	63442.56
547.17	62838.70
547.34	62258.25
547.50	62330.81
547.67	62843.38
547.84	62656.14
548.00	63056.37
548.17	63503.42
548.34	63391.07
548.51	63454.26
548.67	63360.64
548.84	63494.05
549.01	63374.69
549.18	63524.48
549.34	63236.59
549.51	63643.85
549.68	63306.81
549.84	63004.88
550.01	62948.71
550.18	62808.28
550.34	63009.56
550.51	63014.24
550.68	63096.16
550.84	62920.62
551.01	62747.42
551.18	62686.57
551.34	62892.54
551.51	63175.74
551.68	63353.62
551.84	63613.42
552.01	63362.98
552.18	63320.85
552.34	62546.14
552.51	62295.70
552.68	62152.93
552.84	62557.84
553.01	62803.59
553.18	62674.87
553.34	62817.64
553.51	62995.52
553.67	63194.46
553.84	63250.64
554.01	63093.82
554.17	62988.50
554.34	63049.35
554.51	62962.75
554.67	63524.48
554.84	63306.81
555.00	62845.72
555.17	62777.85
555.33	62686.57
555.50	62808.28
555.67	62583.58
555.83	62789.55
556.00	62670.18
556.16	62272.29
556.33	61879.08
556.50	61865.04
556.66	61935.26
556.83	61876.74
556.99	61666.09
557.16	61776.10
557.32	62195.06
557.49	62511.03
557.65	62293.36
557.82	62239.53
557.98	62007.81
558.15	61542.05
558.32	61064.58
558.48	60310.92
558.65	60561.36
558.81	60818.82
558.98	61195.65
559.14	61284.59
559.31	61132.45
559.47	61307.99
559.64	61095.00
559.80	60603.49
559.97	60772.01
560.13	61141.81
560.30	61979.73
560.46	62452.51
560.63	62447.83
560.79	62560.18
560.96	62255.91
561.12	61247.14
561.29	60495.83
561.45	60729.88
561.61	61006.06
561.78	61464.81
561.94	61289.27
562.11	61132.45
562.27	61111.39
562.44	61476.51
562.60	61630.99
562.77	61900.15
562.93	61738.65
563.10	61586.52
563.26	61080.96
563.42	61207.35
563.59	60961.59
563.75	61020.11
563.92	61001.38
564.08	60994.36
564.24	61162.88
564.41	61195.65
564.57	61109.05
564.74	61174.58
564.90	61116.07
565.07	60921.80
565.23	60591.79
565.39	60198.58
565.56	59833.46
565.72	59592.38
565.88	60027.72
566.05	60156.45
566.21	60343.69
566.38	60507.53
566.54	60437.31
566.70	60685.41
566.87	60968.61
567.03	60891.38
567.19	61272.88
567.36	61015.43
567.52	60837.54
567.68	60697.11
567.85	60018.36
568.01	59786.64
568.17	59374.71
568.34	59606.42
568.50	59601.74
568.66	59700.04
568.83	59863.88
568.99	59898.99
569.15	60079.21
569.32	59994.95
569.48	59749.20
569.64	59810.05
569.81	59412.16
569.97	59430.88
570.13	59678.98
570.30	59079.80
570.46	58691.27
570.62	58218.49
570.78	58206.78
570.95	58192.74
571.11	58719.36
571.27	59028.31
571.43	59079.80
571.60	59419.18
571.76	59625.15
571.92	60067.51
572.09	60144.75
572.25	59934.10
572.41	59845.16
572.57	59842.82
572.74	59887.29
572.90	59686.00
573.06	59318.54
573.22	59568.97
573.38	59458.97
573.55	59470.67
573.71	59803.03
573.87	59632.17
574.03	59217.89
574.20	59269.39
574.36	59077.46
574.52	58937.03
574.68	58829.37
574.84	58560.20
575.01	58211.46
575.17	58192.74
575.33	58291.04
575.49	58609.35
575.65	58663.19
575.82	58501.69
575.98	58382.32
576.14	58459.56
576.30	58518.07
576.46	58801.28
576.62	58649.14
576.79	58787.24
576.95	58646.80
577.11	58590.63
577.27	58560.20
577.43	58810.64
577.59	58260.62
577.75	58085.07
577.92	57340.78
578.08	57441.43
578.24	57219.08
578.40	57605.26
578.56	57710.59
578.72	57661.44
578.88	57879.11
579.04	58028.90
579.21	58262.96
579.37	58195.08
579.53	58220.83
579.69	58176.36
579.85	58344.87
580.01	58347.21
580.17	57918.90
580.33	57818.25
580.49	57790.17
580.65	58216.14
580.82	58164.65
580.98	58162.31
581.14	58134.23
581.30	58211.46
581.46	57956.35
581.62	58361.26
581.78	58337.85
581.94	58309.77
582.10	58045.29
582.26	58260.62
582.42	58291.04
582.58	58660.85
582.74	58267.64
582.90	58445.52
583.06	58384.66
583.22	58333.17
583.38	58103.80
583.54	58155.29
583.70	57935.28
583.86	58061.67
584.02	57848.68
584.18	58014.86
584.34	57722.29
584.50	57626.33
584.66	57853.36
584.82	57347.81
584.98	57329.08
585.14	57080.98
585.30	56687.78
585.46	56107.32
585.62	56374.14
585.78	56535.64
585.94	56425.64
586.10	56760.33
586.26	56882.04
586.42	57123.11
586.58	57539.73
586.74	57338.44
586.90	57055.24
587.06	57270.57
587.22	57130.14
587.38	56879.70
587.54	56753.31
587.70	56823.53
587.86	56306.27
588.02	55945.83
588.18	55955.19
588.34	55234.30
588.49	53469.54
588.65	51615.83
588.81	51569.02
588.97	51700.09
589.13	51318.59
589.29	51405.19
589.45	52233.74
589.61	53240.17
589.77	54197.44
589.93	54691.30
590.08	55515.17
590.24	55547.93
590.40	55707.09
590.56	55978.59
590.72	55475.38
590.88	55154.72
591.04	55093.87
591.20	54876.20
591.35	54930.03
591.51	55194.51
591.67	54688.96
591.83	55309.20
591.99	55313.88
592.15	55033.02
592.31	55454.31
592.46	55260.05
592.62	54782.58
592.78	54574.27
592.94	54925.35
593.10	55018.97
593.26	55213.24
593.41	55613.47
593.57	55044.72
593.73	54585.97
593.89	54581.29
594.05	54665.55
594.20	53918.92
594.36	53663.80
594.52	53762.11
594.68	53687.21
594.84	54223.19
594.99	54405.75
595.15	54426.82
595.31	54326.17
595.47	54419.80
595.62	54614.06
595.78	54782.58
595.94	54946.42
596.10	55295.16
596.25	54625.76
596.41	54361.28
596.57	54670.23
596.73	54796.62
596.88	54703.00
597.04	54473.63
597.20	54284.04
597.36	53982.12
597.51	54061.69
597.67	54337.88
597.83	53961.05
597.99	53881.47
598.14	53343.15
598.30	53326.77
598.46	53588.91
598.61	53764.45
598.77	53666.14
598.93	54089.78
599.09	54354.26
599.24	54401.07
599.40	53907.22
599.56	54012.54
599.71	53949.35
599.87	54000.84
600.03	53703.59
600.18	53628.69
600.34	53333.79
600.50	53202.72
600.65	52968.66
600.81	53261.23
600.97	53425.07
601.12	53191.01
601.28	53162.93
601.44	53141.86
601.59	52809.51
601.75	52516.94
601.91	52699.50
602.06	52254.80
602.22	52818.87
602.37	52769.72
602.53	52959.30
602.69	53324.43
602.84	53598.27
603.00	53687.21
603.16	53705.93
603.31	53759.76
603.47	53715.29
603.62	53656.78
603.78	53502.31
603.94	53048.24
604.09	53537.41
604.25	53263.57
604.40	52975.69
604.56	52996.75
604.71	53418.05
604.87	53027.18
605.03	52861.00
605.18	52608.22
605.34	52837.59
605.49	52512.26
605.65	52853.98
605.80	52917.17
605.96	52577.79
606.12	51983.30
606.27	52325.02
606.43	52147.14
606.58	52444.38
606.74	52519.28
606.89	52416.30
607.05	52846.96
607.20	52463.11
607.36	52250.12
607.51	51952.87
607.67	51604.13
607.82	51505.83
607.98	51723.50
608.13	51653.28
608.29	51257.73
608.44	51356.03
608.60	51091.55
608.75	51196.88
608.91	51489.45
609.06	50834.10
609.22	51597.11
609.37	51433.27
609.53	51384.12
609.68	51147.73
609.84	50253.64
609.99	50101.51
610.15	50279.39
610.30	50415.14
610.46	50637.49
610.61	50883.25
610.76	51100.92
610.92	51353.69
611.07	51526.89
611.23	51325.61
611.38	51217.94
611.54	50937.08
611.69	50686.64
611.84	49815.96
612.00	49731.70
612.15	49619.36
612.31	50078.10
612.46	49769.15
612.62	50059.38
612.77	50068.74
612.92	50651.53
613.08	49944.69
613.23	49102.10
613.39	48655.06
613.54	48006.73
613.69	48254.82
613.85	48381.21
614.00	48842.30
614.15	49296.36
614.31	49015.50
614.46	49345.51
614.62	48968.69
614.77	49389.98
614.92	49219.13
615.08	48987.41
615.23	48846.98
615.38	48736.98
615.54	48142.48
615.69	47505.85
615.84	46314.52
616.00	46382.40
616.15	46698.37
616.30	46747.52
616.46	46740.50
616.61	46714.75
616.76	47529.26
616.92	47236.69
617.07	47856.93
617.22	47901.40
617.37	48151.84
617.53	48271.21
617.68	48456.11
617.83	48144.82
617.99	48037.16
618.14	48191.63
618.29	48182.27
618.45	47503.51
618.60	47313.93
618.75	47145.41
618.90	46791.99
619.06	47318.61
619.21	47615.86
619.36	47480.11
619.51	47662.67
619.67	47035.41
619.82	47627.56
619.97	47606.50
620.12	47449.68
620.28	47480.11
620.43	47330.31
620.58	47695.44
620.73	47435.64
620.89	47332.65
621.04	46717.09
621.19	46742.84
621.34	46220.90
621.49	46064.08
621.65	45975.14
621.80	45888.54
621.95	46129.62
622.10	46181.11
622.25	45925.99
622.41	45832.37
622.56	44973.39
622.71	45071.70
622.86	44699.55
623.01	45160.64
623.16	45382.99
623.32	45155.96
623.47	45097.44
623.62	44912.54
623.77	45071.70
623.92	44289.96
624.07	43999.73
624.23	43529.28
624.38	43744.61
624.53	43686.10
624.68	44032.50
624.83	43618.22
624.98	43735.25
625.13	42899.68
625.29	43203.95
625.44	43173.52
625.59	42902.02
625.74	43545.67
625.89	43665.03
626.04	43852.28
626.19	43489.49
626.34	44105.06
626.49	43812.49
626.65	43545.67
626.80	43786.74
626.95	43295.23
627.10	43267.14
627.25	42550.94
627.40	40875.12
627.55	40809.58
627.70	40240.83
627.85	40093.38
628.00	40914.90
628.15	41469.61
628.30	41883.89
628.45	41680.26
628.60	42033.68
628.76	42305.18
628.91	41888.57
629.06	41624.09
629.21	41504.72
629.36	40961.72
629.51	40837.67
629.66	40149.55
629.81	40245.51
629.96	40109.76
630.11	40612.98
630.26	41041.29
630.41	41083.42
630.56	41144.28
630.71	41244.92
630.86	41282.37
631.01	40980.44
631.16	40552.12
631.31	40006.78
631.46	39407.60
631.61	39651.02
631.76	39908.47
631.91	39981.03
632.06	40727.66
632.21	40683.19
632.36	40957.03
632.51	40507.65
632.66	40697.24
632.81	40498.29
632.96	40708.94
633.10	40102.74
633.25	39508.24
633.40	39704.85
633.55	39962.31
633.70	39768.04
633.85	40196.36
634.00	39690.80
634.15	40121.46
634.30	39838.26
634.45	39955.29
634.60	39971.67
634.75	39875.71
634.90	39838.26
635.05	39690.80
635.19	39943.58
635.34	39292.91
635.49	39323.34
635.64	39007.37
635.79	39035.45
635.94	38703.10
636.09	39129.08
636.24	39379.51
636.39	39072.90
636.53	39161.84
636.68	39349.09
636.83	39620.59
636.98	39281.21
637.13	39550.37
637.28	39662.72
637.43	39718.89
637.57	39313.98
637.72	38930.13
637.87	38955.88
638.02	38843.53
638.17	39337.38
638.32	38918.43
638.46	39323.34
638.61	38895.02
638.76	38749.91
638.91	38370.74
639.06	37809.01
639.20	37919.02
639.35	37893.27
639.50	37425.17
639.65	37626.45
639.80	37574.96
639.94	38160.09
640.09	37724.75
640.24	37617.09
640.39	37471.98
640.54	37607.73
640.68	37256.65
640.83	36622.36
640.98	36423.42
641.13	36844.71
641.27	36772.16
641.42	36840.03
641.57	36793.22
641.72	36753.43
641.86	36678.54
642.01	36898.55
642.16	37441.55
642.31	37003.87
642.45	37439.21
642.60	36821.31
642.75	36877.48
642.90	36226.81
643.04	36512.36
643.19	36542.78
643.34	36116.81
643.48	36163.62
643.63	35812.54
643.78	35997.44
643.93	36299.37
644.07	36900.89
644.22	37069.40
644.37	36772.16
644.51	36102.76
644.66	36109.78
644.81	35765.73
644.95	35541.03
645.10	35351.45
645.25	35435.71
645.39	35180.59
645.54	35098.67
645.69	35089.31
645.83	34581.42
645.98	34220.97
646.13	34244.38
646.27	34356.72
646.42	34583.76
646.57	33916.70
646.71	33795.00
646.86	34225.65
647.00	33851.17
647.15	33399.44
647.30	33055.39
647.44	33535.20
647.59	33785.63
647.74	33003.89
647.88	33565.62
648.03	33357.32
648.17	33141.99
648.32	33188.80
648.47	33879.25
648.61	33895.64
648.76	33598.39
648.90	32383.65
649.05	31585.53
649.20	31428.71
649.34	31639.36
649.49	31527.02
649.63	31594.89
649.78	32624.73
649.92	33198.16
650.07	33237.95
650.21	33397.10
650.36	33773.93
650.51	33589.03
650.65	33893.30
650.80	33670.95
650.94	33071.77
651.09	32954.74
651.23	32189.39
651.38	31374.88
651.52	31615.96
651.67	31761.07
651.81	32306.41
651.96	32884.53
652.10	32484.30
652.25	32641.11
652.39	32629.41
652.54	32624.73
652.68	32692.60
652.83	32402.38
652.97	32528.77
653.12	32180.03
653.26	32563.87
653.41	32849.42
653.55	32797.93
653.70	32542.81
653.84	32664.52
653.99	32112.15
654.13	31548.08
654.27	31445.10
654.42	30527.61
654.56	30754.64
654.71	30995.71
654.85	30878.69
655.00	30211.64
655.14	30249.08
655.29	29860.55
655.43	29029.66
655.57	27751.73
655.72	26263.15
655.86	24198.80
656.01	23094.07
656.15	23030.87
656.30	24907.98
656.44	25848.88
656.58	27400.65
656.73	28273.67
656.87	28786.25
657.01	29006.26
657.16	29324.57
657.30	29937.79
657.45	30139.08
657.59	30691.44
657.73	30539.31
657.88	30466.75
658.02	30141.42
658.16	30326.32
658.31	30387.18
658.45	30359.09
658.60	30515.90
658.74	30164.82
658.88	29886.30
659.03	29677.99
659.17	29048.39
659.31	29556.28
659.46	29490.75
659.60	29802.04
659.74	30251.42
659.89	30162.48
660.03	29961.20
660.17	30394.20
660.32	29788.00
660.46	29816.08
660.60	29734.17
660.74	29607.78
660.89	29663.95
661.03	29322.23
661.17	29752.89
661.32	29324.57
661.46	29865.24
661.60	29486.07
661.74	29352.66
661.89	29514.16
662.03	29378.40
662.17	29352.66
662.31	29263.72
662.46	29036.69
662.60	28964.13
662.74	29240.31
662.88	28617.73
663.03	28133.24
663.17	28102.81
663.31	27840.67
663.45	28084.09
663.60	28311.12
663.74	28194.09
663.88	28217.50
664.02	27974.08
664.17	28341.55
664.31	28109.83
664.45	27789.18
664.59	28093.45
664.73	27777.48
664.88	28013.87
665.02	28100.47
665.16	28180.05
665.30	27901.53
665.44	28056.00
665.59	27592.58
665.73	27496.61
665.87	27204.05
666.01	27129.15
666.15	26988.72
666.29	26895.10
666.44	27061.27
666.58	27199.37
666.72	27250.86
666.86	27257.88
667.00	27316.39
667.14	27049.57
667.28	26977.01
667.43	26644.66
667.57	26733.60
667.71	26298.26
667.85	26726.58
667.99	26506.57
668.13	26445.71
668.27	26663.38
668.41	26555.72
668.56	26462.10
668.70	26450.39
668.84	26370.82
668.98	26384.86
669.12	26143.78
669.26	26059.52
669.40	25914.41
669.54	25905.05
669.68	26073.57
669.82	25394.81
669.96	25621.84
670.10	25369.07
670.25	25324.60
670.39	25179.48
670.53	24828.40
670.67	24765.21
670.81	24996.92
670.95	24627.12
671.09	24863.51
671.23	24718.40
671.37	24470.30
671.51	24437.53
671.65	24716.06
671.79	24800.32
671.93	24563.92
672.07	24851.81
672.21	24451.58
672.35	24247.95
672.49	24416.47
672.63	24364.98
672.77	24332.21
672.91	23847.72
673.05	24067.73
673.19	23995.17
673.33	24313.48
673.47	23924.96
673.61	23660.48
673.75	23828.99
673.89	23800.91
674.03	23857.08
674.17	23686.22
674.31	23754.10
674.45	23524.72
674.59	23028.53
674.73	23325.78
674.87	22981.72
675.01	22927.89
675.15	22852.99
675.29	23232.16
675.43	23246.20
675.56	23262.58
675.70	23283.65
675.84	22862.35
675.98	22436.38
676.12	22719.58
676.26	22764.05
676.40	23091.73
676.54	22843.63
676.68	22352.12
676.82	21951.88
676.96	22279.56
677.10	22309.99
677.23	22169.55
677.37	22258.49
677.51	22045.51
677.65	21942.52
677.79	21659.32
677.93	21975.29
678.07	21645.27
678.21	21116.31
678.34	21116.31
678.48	20940.77
678.62	20823.75
678.76	20947.79
678.90	21165.46
679.04	21359.73
679.18	20917.37
679.31	20580.33
679.45	20884.60
679.59	20676.29
679.73	20617.78
679.87	20718.42
680.00	20596.71
680.14	20091.16
680.28	20116.90
680.42	20194.14
680.56	20013.92
680.70	19777.53
680.83	19901.58
680.97	19482.62
681.11	19634.75
681.25	19882.85
681.39	19915.62
681.52	19630.07
681.66	19730.72
681.80	19646.46
681.94	19557.52
682.07	19728.38
682.21	19475.60
682.35	18972.38
682.49	19084.73
682.62	19030.90
682.76	18860.04
682.90	18609.60
683.04	18698.54
683.17	18499.59
683.31	18293.63
683.45	18494.91
683.59	18162.56
683.72	18253.84
683.86	17968.29
684.00	17462.74
684.13	17645.30
684.27	17568.06
684.41	17579.76
684.55	17813.82
684.68	17724.88
684.82	17764.67
684.96	17422.95
685.09	17362.09
685.23	17228.68
685.37	17102.29
685.50	16938.46
685.64	16809.73
685.78	16688.02
685.91	16992.29
686.05	16982.93
686.19	16465.67
686.32	15552.86
686.46	13996.40
686.60	12044.40
686.73	11302.45
686.87	10855.40
687.01	10597.95
687.14	10696.25
687.28	11190.10
687.42	11538.84
687.55	12262.07
687.69	12767.62
687.82	13090.62
687.96	13832.57
688.10	13729.58
688.23	13731.92
688.37	13582.13
688.50	13179.56
688.64	13184.24
688.78	12905.71
688.91	13048.49
689.05	12716.13
689.18	12659.96
689.32	12571.02
689.46	12865.92
689.59	12734.85
689.73	13205.30
689.86	12840.18
690.00	12964.23
690.13	12872.95
690.27	13104.66
690.41	13170.19
690.54	12826.14
690.68	12992.31
690.81	13177.22
690.95	13282.54
691.08	13207.64
691.22	13296.58
691.35	13083.59
691.49	13069.55
691.62	13022.74
691.76	13219.35
691.89	13469.78
692.03	13139.77
692.16	13095.30
692.30	13011.04
692.43	13153.81
692.57	12999.34
692.70	12624.85
692.84	12765.28
692.97	12264.41
693.11	12322.92
693.24	12084.19
693.38	12372.07
693.51	12252.70
693.65	11908.65
693.78	12077.16
693.92	11810.34
694.05	11946.09
694.19	11789.28
694.32	11796.30
694.45	11754.17
694.59	11840.77
694.72	11786.94
694.86	11831.41
694.99	11749.49
695.13	11609.06
695.26	11557.57
695.39	11353.94
695.53	11386.71
695.66	11321.17
695.80	11400.75
695.93	11531.82
696.07	11412.45
696.20	11672.25
696.33	11667.57
696.47	11782.26
696.60	12070.14
696.73	11719.06
696.87	11737.79
697.00	11920.35
697.14	11630.12
697.27	11669.91
697.40	11325.85
697.54	11094.14
697.67	10607.31
697.80	11077.76
697.94	10862.43
698.07	10923.28
698.21	10595.61
698.34	10494.96
698.47	10689.23
698.61	10310.06
698.74	10504.32
698.87	10345.17
699.01	10298.36
699.14	10373.25
699.27	10216.44
699.40	10413.04
699.54	10003.45
699.67	10078.35
699.80	9928.55
699.94	10052.60
700.07	9874.72
700.20	9638.33
700.34	9430.02
700.47	9568.11
700.60	9376.19
700.73	9497.89
700.87	9724.93
701.00	9535.34
701.13	9305.97
701.26	9348.10
701.40	9275.54
701.53	9186.60
701.66	9228.73
701.79	9242.78
701.93	9341.08
702.06	9163.20
702.19	8889.35
702.32	9062.55
702.46	8952.55
702.59	8753.60
702.72	8781.69
702.85	9069.58
702.99	9221.71
703.12	9095.32
703.25	9090.64
703.38	9125.75
703.51	8917.44
703.65	8788.71
703.78	8739.56
703.91	8638.92
704.04	8769.99
704.17	8926.80
704.31	8802.75
704.44	8772.33
704.57	8683.39
704.70	8755.94
704.83	8610.83
704.96	8549.98
705.10	8498.49
705.23	8147.40
>>>>>End Processed Spectral Data<<<<<
