SpectraSuite Data File
++++++++++++++++++++++++++++++++++++
Date: Mon Oct 07 14:53:56 GMT-05:00 2013
User: price-jones
Dark Spectrum Present: No
Reference Spectrum Present: No
Number of Sampled Component Spectra: 1
Spectrometers: USB2+H05261
Integration Time (usec): 100000 (USB2+H05261)
Spectra Averaged: 1 (USB2+H05261)
Boxcar Smoothing: 0 (USB2+H05261)
Correct for Electrical Dark: No (USB2+H05261)
Strobe/Lamp Enabled: No (USB2+H05261)
Correct for Detector Non-linearity: No (USB2+H05261)
Correct for Stray Light: No (USB2+H05261)
Number of Pixels in Processed Spectrum: 2048
>>>>>Begin Processed Spectral Data<<<<<
365.73	0.00
365.92	0.00
366.12	0.00
366.32	0.00
366.52	0.00
366.72	0.00
366.91	0.00
367.11	0.00
367.31	0.00
367.51	0.00
367.70	0.00
367.90	0.00
368.10	0.00
368.30	0.00
368.49	0.00
368.69	0.00
368.89	0.00
369.09	0.00
369.28	0.00
369.48	0.00
369.68	0.00
369.87	0.00
370.07	0.00
370.27	0.00
370.47	807.48
370.66	3861.88
370.86	4571.07
371.06	5032.15
371.25	4748.95
371.45	4514.89
371.65	3918.06
371.84	3637.19
372.04	3995.29
372.24	4407.23
372.44	4489.15
372.63	4472.76
372.83	4140.41
373.03	3707.41
373.22	3482.72
373.42	3676.98
373.62	4203.60
373.81	4337.01
374.01	4599.15
374.21	4018.70
374.40	3786.99
374.60	3948.48
374.79	4318.29
374.99	5296.63
375.19	5472.17
375.38	5500.26
375.58	5174.92
375.78	5081.30
375.97	5156.20
376.17	5322.38
376.37	5336.42
376.56	5420.68
376.76	5717.93
376.95	6218.80
377.15	6700.95
377.35	6808.62
377.54	7126.93
377.74	7360.98
377.93	7262.68
378.13	7145.66
378.33	6717.34
378.52	6136.88
378.72	6092.41
378.91	5872.40
379.11	5717.93
379.31	5453.45
379.50	5558.77
379.70	5888.79
379.89	6604.99
380.09	7061.40
380.28	7229.91
380.48	7187.79
380.68	6977.14
380.87	6843.73
381.07	6370.94
381.26	5849.00
381.46	5526.00
381.65	5298.97
381.85	5060.24
382.04	4709.16
382.24	4568.73
382.43	4437.66
382.63	4437.66
382.83	4325.31
383.02	4292.54
383.22	4325.31
383.41	4271.48
383.61	4767.67
383.80	5284.93
384.00	6111.14
384.19	6799.26
384.39	7005.22
384.58	7002.88
384.78	6820.32
384.97	6740.74
385.17	6406.05
385.36	6071.35
385.56	5928.58
385.75	6029.22
385.95	6534.78
386.14	7185.44
386.34	7309.49
386.53	6885.86
386.72	6410.73
386.92	6523.07
387.11	6857.77
387.31	7187.79
387.50	7129.27
387.70	6862.45
387.89	6862.45
388.09	6827.34
388.28	6878.83
388.48	7145.66
388.67	7531.84
388.86	8128.68
389.06	8788.71
389.25	9235.75
389.45	9357.46
389.64	9128.09
389.84	9233.41
390.03	8954.89
390.22	8919.78
390.42	9495.55
390.61	9886.42
390.81	10530.07
391.00	10883.49
391.19	10766.46
391.39	10321.76
391.58	9654.71
391.78	9064.89
391.97	8987.66
392.16	8301.88
392.36	7676.96
392.55	6106.46
392.75	4688.09
392.94	3948.48
393.13	3918.06
393.33	4578.09
393.52	5867.72
393.71	7180.76
393.91	8133.36
394.10	8919.78
394.29	9856.00
394.49	10342.83
394.68	11255.64
394.88	11307.13
395.07	11569.27
395.26	11342.24
395.46	11077.76
395.65	10518.37
395.84	9090.64
396.04	7791.64
396.23	6267.95
396.42	5366.85
396.62	5142.16
396.81	5956.66
397.00	7632.49
397.19	9825.57
397.39	11225.21
397.58	12681.02
397.77	13238.07
397.97	13989.38
398.16	13973.00
398.35	14663.46
398.55	15082.41
398.74	15758.83
398.93	16121.61
399.12	15815.00
399.32	15143.27
399.51	15496.69
399.70	16336.94
399.90	16196.51
400.09	16446.94
400.28	16086.50
400.47	16238.64
400.67	17177.19
400.86	17371.46
401.05	17448.69
401.24	17624.23
401.44	18003.40
401.63	18087.66
401.82	18008.08
402.01	18073.62
402.21	18284.26
402.40	18429.38
402.59	17795.09
402.78	17053.14
402.97	16479.71
403.17	17191.23
403.36	18153.20
403.55	18958.34
403.74	19302.40
403.93	18354.48
404.13	17142.08
404.32	16456.31
404.51	17064.85
404.70	18579.17
404.89	18684.50
405.09	18080.64
405.28	17752.96
405.47	17771.69
405.66	17734.24
405.85	17436.99
406.05	16753.55
406.24	17050.80
406.43	17671.04
406.62	18328.74
406.81	18684.50
407.00	17708.49
407.20	17383.16
407.39	17476.78
407.58	18583.85
407.77	19220.48
407.96	19541.13
408.15	19747.10
408.34	19917.96
408.54	21074.18
408.73	20844.81
408.92	20737.15
409.11	19946.05
409.30	19264.95
409.49	17909.78
409.68	16746.53
409.87	16475.03
410.07	17050.80
410.26	18700.88
410.45	20098.18
410.64	20290.10
410.83	21048.44
411.02	21631.23
411.21	22361.48
411.40	21809.11
411.59	22148.49
411.78	21858.26
411.98	21605.49
412.17	21940.18
412.36	21514.20
412.55	22087.64
412.74	21263.77
412.93	20737.15
413.12	20678.63
413.31	22881.08
413.50	22829.59
413.69	23676.86
413.88	22604.89
414.07	21631.23
414.26	22272.54
414.45	22888.10
414.64	23077.68
414.83	22974.70
415.02	22515.95
415.22	22525.32
415.41	23325.78
415.60	23997.51
415.79	24903.30
415.98	25289.49
416.17	25317.57
416.36	24905.64
416.55	24603.71
416.74	23459.19
416.93	22934.91
417.12	22728.94
417.31	23407.70
417.50	23616.01
417.69	23971.77
417.88	24170.71
418.07	24374.34
418.26	23498.98
418.45	24091.13
418.64	24451.58
418.83	25614.82
419.02	25135.01
419.21	25348.00
419.39	23985.81
419.58	22810.86
419.77	22508.93
419.96	23730.69
420.15	25209.91
420.34	25696.74
420.53	26909.14
420.72	27192.34
420.91	27087.02
421.10	26679.77
421.29	26572.10
421.48	25132.67
421.67	26817.86
421.86	26047.82
422.05	24364.98
422.24	21781.03
422.43	21336.32
422.61	23920.28
422.80	25783.34
422.99	25762.28
423.18	24844.79
423.37	24416.47
423.56	24280.72
423.75	24889.26
423.94	25228.63
424.13	24114.54
424.32	23777.50
424.50	24594.35
424.69	23960.06
424.88	24243.27
425.07	23843.04
425.26	23955.38
425.45	23470.89
425.64	23161.94
425.83	23353.87
426.01	24554.56
426.20	25193.53
426.39	25186.50
426.58	22986.40
426.77	21352.71
426.96	20790.98
427.15	21362.07
427.33	23417.06
427.52	24126.24
427.71	24655.20
427.90	24039.64
428.09	24102.84
428.28	23358.55
428.46	22728.94
428.65	22328.71
428.84	22864.69
429.03	23136.20
429.22	21837.20
429.40	20716.08
429.59	18981.74
429.78	16533.54
429.97	16903.35
430.16	17128.04
430.34	17032.08
430.53	16858.88
430.72	17371.46
430.91	18981.74
431.10	22450.42
431.28	26593.17
431.47	28606.03
431.66	29069.45
431.85	26288.90
432.03	24222.20
432.22	23058.96
432.41	23763.46
432.60	26595.51
432.79	27508.32
432.97	28617.73
433.16	27744.71
433.35	25261.40
433.54	22864.69
433.72	21385.47
433.91	22045.51
434.10	24465.62
434.28	26256.13
434.47	27751.73
434.66	27197.02
434.85	26396.56
435.03	26363.79
435.22	27295.33
435.41	29039.03
435.59	28577.94
435.78	29462.66
435.97	30038.44
436.16	29933.11
436.34	30019.71
436.53	28966.47
436.72	29439.26
436.90	27814.93
437.09	27445.12
437.28	27021.48
437.46	27953.02
437.65	28149.62
437.84	26263.15
438.02	24088.79
438.21	23814.95
438.40	25118.63
438.58	27215.75
438.77	27819.61
438.96	27711.94
439.14	29359.68
439.33	30033.75
439.52	30560.37
439.70	30043.12
439.89	29303.51
440.08	28357.93
440.26	28226.86
440.45	29422.87
440.63	31344.45
440.82	32500.68
441.01	32425.78
441.19	31740.00
441.38	32500.68
441.57	33682.65
441.75	34148.42
441.94	33888.62
442.12	34022.03
442.31	34448.00
442.50	34522.90
442.68	34010.32
442.87	33699.03
443.05	33296.46
443.24	33792.65
443.43	34457.37
443.61	35103.35
443.80	35379.54
443.98	33298.80
444.17	33329.23
444.35	35328.05
444.54	35903.82
444.73	35648.70
444.91	33991.60
445.10	32554.51
445.28	31337.43
445.47	31056.57
445.65	31108.06
445.84	31693.19
446.02	32943.04
446.21	33689.67
446.39	33481.36
446.58	34178.84
446.77	34340.34
446.95	34981.65
447.14	35950.63
447.32	36645.77
447.51	35597.21
447.69	34476.09
447.88	33556.26
448.06	34342.68
448.25	35089.31
448.43	35693.17
448.62	34871.64
448.80	34382.47
448.99	34574.39
449.17	35061.22
449.36	34588.44
449.54	35868.71
449.73	36720.66
449.91	37558.58
450.10	38272.44
450.28	39009.71
450.46	38431.60
450.65	38426.92
450.83	38267.76
451.02	37230.90
451.20	37289.42
451.39	37074.09
451.57	36844.71
451.76	37062.38
451.94	36573.21
452.13	36327.45
452.31	34258.42
452.49	32549.83
452.68	33226.24
452.86	33479.02
453.05	34117.99
453.23	34668.02
453.42	35978.72
453.60	36308.73
453.78	36641.09
453.97	36245.54
454.15	36411.71
454.34	35562.10
454.52	35541.03
454.70	34904.41
454.89	35765.73
455.07	35377.20
455.26	35990.42
455.44	37542.19
455.62	37816.04
455.81	38462.02
455.99	38445.64
456.17	37165.37
456.36	37385.38
456.54	38485.43
456.73	38550.96
456.91	39576.12
457.09	39466.11
457.28	40032.52
457.46	38101.58
457.64	38508.83
457.83	37319.84
458.01	36552.15
458.19	37434.53
458.38	37605.39
458.56	38607.14
458.74	38831.83
458.93	37825.40
459.11	37902.64
459.29	37495.38
459.48	37560.92
459.66	37556.24
459.84	38213.93
460.03	38415.21
460.21	38391.81
460.39	39428.66
460.57	39126.74
460.76	39936.56
460.94	39702.51
461.12	39075.24
461.31	39714.21
461.49	39019.07
461.67	38937.15
461.85	40685.53
462.04	40062.95
462.22	40893.84
462.40	40453.82
462.59	40172.96
462.77	40135.51
462.95	40055.93
463.13	39651.02
463.32	39555.05
463.50	38993.32
463.68	39325.68
463.86	39409.94
464.05	38473.73
464.23	38438.62
464.41	37832.42
464.59	36992.17
464.78	39091.63
464.96	38941.83
465.14	38464.36
465.32	39077.58
465.50	40198.70
465.69	40493.61
465.87	39732.93
466.05	38745.23
466.23	36996.85
466.41	36411.71
466.60	37413.46
466.78	37471.98
466.96	38220.95
467.14	38618.84
467.32	38965.24
467.51	38923.11
467.69	37247.29
467.87	38132.01
468.05	39058.86
468.23	38998.01
468.41	38934.81
468.60	38632.88
468.78	39012.05
468.96	38848.21
469.14	39405.26
469.32	39522.29
469.50	38117.96
469.69	38480.75
469.87	37603.05
470.05	37296.44
470.23	37935.40
470.41	37797.31
470.59	38539.26
470.77	38150.73
470.95	39196.95
471.14	39681.44
471.32	39508.24
471.50	41930.70
471.68	41811.33
471.86	41649.83
472.04	41991.55
472.22	42192.84
472.40	40542.76
472.58	40062.95
472.77	39810.17
472.95	40397.65
473.13	41734.09
473.31	40779.15
473.49	40737.02
473.67	41329.18
473.85	41752.82
474.03	42653.92
474.21	42855.21
474.39	42930.11
474.57	43070.54
474.75	43407.58
474.93	42866.91
475.12	41823.03
475.30	42284.12
475.48	42445.62
475.66	42829.46
475.84	42515.83
476.02	42136.66
476.20	40865.75
476.38	41942.40
476.56	43613.54
476.74	43938.88
476.92	43775.04
477.10	44603.59
477.28	45883.86
477.46	46007.91
477.64	46043.02
477.82	46204.52
478.00	46204.52
478.18	45834.71
478.36	45488.31
478.54	45530.44
478.72	46162.39
478.90	46681.98
479.08	47587.77
479.26	48292.27
479.44	48301.64
479.62	48093.33
479.80	48334.40
479.98	48432.71
480.16	48526.33
480.34	48217.38
480.52	48666.76
480.70	48711.23
480.88	48788.47
481.06	49333.81
481.24	49844.05
481.41	50478.33
481.59	50990.91
481.77	50766.22
481.95	50068.74
482.13	49808.94
482.31	50382.37
482.49	50887.93
482.67	50576.64
482.85	50794.31
483.03	51515.19
483.21	51714.14
483.39	51344.33
483.57	51119.64
483.74	50614.08
483.92	50981.55
484.10	51320.93
484.28	52126.07
484.46	52320.34
484.64	52711.20
484.82	51777.33
485.00	51306.88
485.18	51004.95
485.35	49600.63
485.53	46923.06
485.71	43262.46
485.89	42342.63
486.07	44371.88
486.25	47999.71
486.43	49820.64
486.61	50494.72
486.78	50351.94
486.96	50560.25
487.14	52189.27
487.32	52699.50
487.50	53820.62
487.68	54480.65
487.85	54787.26
488.03	54644.49
488.21	54223.19
488.39	53771.47
488.57	53406.34
488.75	52797.80
488.92	53743.38
489.10	55751.56
489.28	56809.48
489.46	57364.19
489.64	57137.16
489.81	57214.40
489.99	57034.17
490.17	56903.10
490.35	57485.90
490.53	57052.90
490.70	56800.12
490.88	56622.24
491.06	57183.97
491.24	57420.36
491.41	56540.32
491.59	55114.94
491.77	54747.47
491.95	55557.30
492.13	56301.59
492.30	57382.91
492.48	58155.29
492.66	58721.70
492.84	58520.41
493.01	58255.93
493.19	57897.83
493.37	57605.26
493.54	57301.00
493.72	57918.90
493.90	58897.24
494.08	59480.03
494.25	59653.23
494.43	59807.71
494.61	60163.47
494.79	60168.15
494.96	60123.68
495.14	59526.84
495.32	58691.27
495.49	58080.39
495.67	59128.95
495.85	60257.09
496.02	60619.88
496.20	60441.99
496.38	60147.09
496.55	59948.14
496.73	60301.56
496.91	60324.97
497.09	61057.56
497.26	61298.63
497.44	60601.15
497.62	60069.85
497.79	59627.49
497.97	58401.05
498.14	58480.63
498.32	59360.67
498.50	60402.21
498.67	61062.24
498.85	60664.35
499.03	60928.83
499.20	61003.72
499.38	61048.19
499.56	61013.08
499.73	60568.38
499.91	60130.70
500.08	59662.60
500.26	59072.78
500.44	59318.54
500.61	60182.19
500.79	59990.27
500.97	59767.92
501.14	59529.19
501.32	59327.90
501.49	59449.61
501.67	59550.25
501.84	59814.73
502.02	60322.63
502.20	60458.38
502.37	60612.85
502.55	60573.06
502.72	61317.35
502.90	61375.87
503.07	61286.93
503.25	61095.00
503.43	60121.34
503.60	59526.84
503.78	58941.71
503.95	59414.50
504.13	60528.59
504.30	61485.87
504.48	61329.06
504.65	60781.37
504.83	60945.21
505.01	61567.79
505.18	61687.16
505.36	62372.94
505.53	62239.53
505.71	62646.78
505.88	62415.07
506.06	61921.21
506.23	62068.67
506.41	61455.45
506.58	61682.48
506.76	61717.59
506.93	61691.84
507.11	61347.78
507.28	61296.29
507.46	61048.19
507.63	60420.93
507.81	60488.80
507.98	60732.22
508.16	61160.54
508.33	61649.71
508.50	61958.66
508.68	62293.36
508.85	62658.48
509.03	62719.34
509.20	62489.96
509.38	61869.72
509.55	61202.67
509.73	61265.86
509.90	61764.40
510.08	61914.19
510.25	61834.61
510.42	61642.69
510.60	61619.28
510.77	61876.74
510.95	62452.51
511.12	62482.94
511.30	62747.42
511.47	63051.69
511.64	62953.39
511.82	62527.41
511.99	61993.77
512.17	61638.01
512.34	61324.38
512.51	61249.48
512.69	61485.87
512.86	61694.18
513.04	62052.28
513.21	61970.36
513.38	61485.87
513.56	61237.78
513.73	60800.10
513.90	60940.53
514.08	60856.27
514.25	61228.41
514.43	61293.95
514.60	61394.59
514.77	61525.66
514.95	61542.05
515.12	61591.20
515.29	61593.54
515.47	62412.73
515.64	62382.30
515.81	62063.99
515.99	61659.07
516.16	60339.01
516.33	58262.96
516.51	56800.12
516.68	56273.50
516.85	56020.72
517.03	56184.56
517.20	58422.11
517.37	60676.05
517.54	61499.92
517.72	61160.54
517.89	58777.87
518.06	56900.76
518.24	57310.36
518.41	59093.85
518.58	60495.83
518.75	60720.52
518.93	60694.77
519.10	60467.74
519.27	61102.03
519.45	61310.33
519.62	61771.42
519.79	62300.38
519.96	61918.87
520.14	61687.16
520.31	60685.41
520.48	60671.37
520.65	61080.96
520.83	62003.13
521.00	62354.21
521.17	62166.97
521.34	61605.24
521.52	61937.60
521.69	62464.22
521.86	62911.26
522.03	62461.88
522.20	61434.38
522.38	60261.77
522.55	60252.41
522.72	60956.91
522.89	61174.58
523.07	61307.99
523.24	61464.81
523.41	62525.07
523.58	62635.08
523.75	63079.78
523.92	62834.02
524.10	62859.77
524.27	62766.15
524.44	62808.28
524.61	62557.84
524.78	62394.00
524.96	62262.93
525.13	62281.66
525.30	62546.14
525.47	62876.15
525.64	62773.17
525.81	62117.82
525.98	60956.91
526.16	59566.63
526.33	59000.22
526.50	58597.65
526.67	58269.98
526.84	58747.45
527.01	59863.88
527.18	60694.77
527.36	61403.95
527.53	62087.39
527.70	62333.15
527.87	61790.14
528.04	61429.70
528.21	61937.60
528.38	62461.88
528.55	63035.31
528.72	63304.47
528.89	63402.77
529.07	63075.10
529.24	62475.92
529.41	61965.68
529.58	61483.53
529.75	61645.03
529.92	61762.06
530.09	62284.00
530.26	62759.12
530.43	62848.06
530.60	63072.76
530.77	63292.77
530.94	63290.43
531.11	62904.24
531.28	62532.09
531.46	62468.90
531.63	62468.90
531.80	62401.02
531.97	62150.59
532.14	61453.11
532.31	60282.84
532.48	60009.00
532.65	59702.38
532.82	60657.32
532.99	61509.28
533.16	61750.35
533.33	62501.67
533.50	62307.40
533.67	61745.67
533.84	61174.58
534.01	61338.42
534.18	61825.25
534.35	61785.46
534.52	61630.99
534.69	61895.47
534.86	62258.25
535.03	62384.64
535.20	62834.02
535.37	63105.52
535.54	63245.96
535.71	63119.57
535.88	62609.33
536.05	61923.55
536.22	61696.52
536.38	61340.76
536.55	60743.92
536.72	60617.53
536.89	60374.12
537.06	61001.38
537.23	62078.03
537.40	62075.69
537.57	62211.44
537.74	61776.10
537.91	61815.89
538.08	61654.39
538.25	61965.68
538.42	62110.80
538.59	61916.53
538.75	61092.66
538.92	60999.04
539.09	60844.57
539.26	60889.04
539.43	60612.85
539.60	60807.12
539.77	60889.04
539.94	60807.12
540.11	60095.60
540.28	59690.68
540.44	59765.58
540.61	59812.39
540.78	60182.19
540.95	60582.43
541.12	60900.74
541.29	61144.16
541.46	61373.53
541.62	61249.48
541.79	61179.26
541.96	60577.75
542.13	60795.42
542.30	60982.66
542.47	61298.63
542.63	60809.46
542.80	60561.36
542.97	60830.52
543.14	60671.37
543.31	60416.25
543.48	61151.18
543.64	62021.86
543.81	62234.84
543.98	61949.30
544.15	61209.69
544.32	60889.04
544.48	60683.07
544.65	61469.49
544.82	61663.75
544.99	61155.86
545.16	60921.80
545.32	60617.53
545.49	61420.34
545.66	61834.61
545.83	61544.39
546.00	60987.34
546.16	60954.57
546.33	60683.07
546.50	61020.11
546.67	61354.80
546.83	61109.05
547.00	60879.67
547.17	60217.30
547.34	59819.41
547.50	59756.22
547.67	60182.19
547.84	60067.51
548.00	60549.66
548.17	60837.54
548.34	60945.21
548.51	60863.29
548.67	60900.74
548.84	60982.66
549.01	60896.06
549.18	60917.12
549.34	60743.92
549.51	60753.29
549.68	60629.24
549.84	60573.06
550.01	60374.12
550.18	60238.37
550.34	60446.68
550.51	60439.65
550.68	60521.57
550.84	59980.91
551.01	60151.77
551.18	59929.42
551.34	60275.82
551.51	60603.49
551.68	60800.10
551.84	60727.54
552.01	60449.02
552.18	60657.32
552.34	59866.22
552.51	59473.01
552.68	59400.46
552.84	59938.78
553.01	60154.11
553.18	60037.08
553.34	60268.79
553.51	60289.86
553.67	60416.25
553.84	60573.06
554.01	60662.00
554.17	60395.18
554.34	60395.18
554.51	60603.49
554.67	60690.09
554.84	60671.37
555.00	60441.99
555.17	60088.57
555.33	59868.56
555.50	59962.18
555.67	59973.89
555.83	59849.84
556.00	59732.81
556.16	59643.87
556.33	59346.62
556.50	58993.20
556.66	58894.90
556.83	58731.06
556.99	59224.92
557.16	59201.51
557.32	59437.90
557.49	59573.66
557.65	59421.52
557.82	59554.93
557.98	59360.67
558.15	59089.16
558.32	58312.11
558.48	57464.83
558.65	57553.77
558.81	58082.73
558.98	58174.02
559.14	58482.97
559.31	58468.92
559.47	58646.80
559.64	58218.49
559.80	58059.33
559.97	57965.71
560.13	58269.98
560.30	59248.32
560.46	59526.84
560.63	59760.90
560.79	59774.94
560.96	59646.21
561.12	58534.46
561.29	57621.65
561.45	57804.21
561.61	58342.53
561.78	58656.17
561.94	58401.05
562.11	58396.37
562.27	58246.57
562.44	58560.20
562.60	58880.86
562.77	58906.60
562.93	58798.94
563.10	58702.98
563.26	58195.08
563.42	58218.49
563.59	58110.82
563.75	58143.59
563.92	58241.89
564.08	58136.57
564.24	58328.49
564.41	58375.30
564.57	58501.69
564.74	58202.10
564.90	58314.45
565.07	58134.23
565.23	57518.67
565.39	57013.11
565.56	56673.73
565.72	56596.49
565.88	56776.72
566.05	57022.47
566.21	57303.34
566.38	57375.89
566.54	57523.35
566.70	57935.28
566.87	58164.65
567.03	57888.47
567.19	58326.15
567.36	57829.96
567.52	57752.72
567.68	57513.98
567.85	56933.53
568.01	56694.80
568.17	56568.41
568.34	56303.93
568.50	56301.59
568.66	56367.12
568.83	56947.57
568.99	56626.92
569.15	56802.46
569.32	56912.47
569.48	56615.22
569.64	56624.58
569.81	56573.09
569.97	56233.71
570.13	56236.05
570.30	55737.52
570.46	55337.29
570.62	54986.21
570.78	54663.21
570.95	54972.16
571.11	55594.74
571.27	55990.30
571.43	56088.60
571.60	56430.32
571.76	56694.80
571.92	56540.32
572.09	56980.34
572.25	56865.66
572.41	56802.46
572.57	56629.26
572.74	56537.98
572.90	56399.89
573.06	56390.53
573.22	56512.23
573.38	56317.97
573.55	56245.41
573.71	56334.35
573.87	56329.67
574.03	56095.62
574.20	56168.18
574.36	55693.05
574.52	55884.97
574.68	55489.42
574.84	55292.82
575.01	54794.28
575.17	54667.89
575.33	54820.03
575.49	55379.42
575.65	55402.82
575.82	55269.41
575.98	54581.29
576.14	55042.38
576.30	55489.42
576.46	55367.71
576.62	55688.37
576.79	55379.42
576.95	55110.25
577.11	55154.72
577.27	55121.96
577.43	55271.75
577.59	54934.71
577.75	54543.84
577.92	53787.85
578.08	53755.08
578.24	53558.48
578.40	54363.62
578.56	54536.82
578.72	54478.31
578.88	54700.66
579.04	54822.37
579.21	54649.17
579.37	54550.87
579.53	54873.86
579.69	55091.53
579.85	54990.89
580.01	54674.91
580.17	54431.50
580.33	54410.43
580.49	54550.87
580.65	54665.55
580.82	54930.03
580.98	54836.41
581.14	54705.34
581.30	54845.77
581.46	54527.46
581.62	54880.88
581.78	54738.11
581.94	54944.08
582.10	54745.13
582.26	55128.98
582.42	55124.30
582.58	54724.07
582.74	54857.48
582.90	54864.50
583.06	54878.54
583.22	54564.91
583.38	54590.66
583.54	54646.83
583.70	54302.77
583.86	54714.70
584.02	54246.60
584.18	54468.95
584.34	54387.03
584.50	54260.64
584.66	54323.83
584.82	53867.43
584.98	53930.62
585.14	53694.23
585.30	52868.02
585.46	52523.96
585.62	52577.79
585.78	52828.23
585.94	52954.62
586.10	53020.16
586.26	53092.71
586.42	53588.91
586.58	53841.68
586.74	53530.39
586.90	53502.31
587.06	53352.51
587.22	53453.15
587.38	52961.64
587.54	52865.68
587.70	52879.72
587.86	52505.24
588.02	52123.73
588.18	52058.20
588.34	50787.28
588.49	49193.38
588.65	46768.58
588.81	46930.08
588.97	47129.03
589.13	46880.93
589.29	46803.69
589.45	47657.99
589.61	48582.50
589.77	50122.57
589.93	50726.43
590.08	51547.96
590.24	51978.62
590.40	51856.91
590.56	51728.18
590.72	51529.23
590.88	50742.81
591.04	50960.48
591.20	50869.20
591.35	50880.91
591.51	50904.31
591.67	50852.82
591.83	50672.60
591.99	50857.50
592.15	51526.89
592.31	51222.62
592.46	51302.20
592.62	50649.19
592.78	50686.64
592.94	50990.91
593.10	50527.48
593.26	51047.08
593.41	51103.26
593.57	51147.73
593.73	50443.23
593.89	50557.91
594.05	49940.01
594.20	49799.58
594.36	49806.60
594.52	49443.82
594.68	49420.41
594.84	49858.09
594.99	50232.58
595.15	50216.19
595.31	50265.34
595.47	50337.90
595.62	50131.93
595.78	50639.83
595.94	50803.67
596.10	51035.38
596.25	50490.04
596.41	50375.35
596.57	49752.77
596.73	50129.59
596.88	50443.23
597.04	50014.91
597.20	49574.89
597.36	49652.12
597.51	49998.52
597.67	49729.36
597.83	49619.36
597.99	49588.93
598.14	49364.24
598.30	48701.87
598.46	48786.13
598.61	49069.33
598.77	49343.17
598.93	49408.71
599.09	49848.73
599.24	49822.98
599.40	49631.06
599.56	49329.13
599.71	49408.71
599.87	49628.72
600.03	49134.87
600.18	48961.67
600.34	48884.43
600.50	48547.39
600.65	48523.99
600.81	48872.73
600.97	48418.66
601.12	48325.04
601.28	48708.89
601.44	48507.60
601.59	47988.00
601.75	47220.31
601.91	47854.59
602.06	47721.18
602.22	47758.63
602.37	48051.20
602.53	48212.70
602.69	48610.59
602.84	48765.06
603.00	48938.26
603.16	49134.87
603.31	48907.83
603.47	49069.33
603.62	48619.95
603.78	49106.78
603.94	48303.98
604.09	48552.07
604.25	48350.79
604.40	48264.19
604.56	48350.79
604.71	48306.32
604.87	48399.94
605.03	47723.52
605.18	48039.50
605.34	47555.00
605.49	47414.57
605.65	47978.64
605.80	47807.78
605.96	47643.94
606.12	46810.71
606.27	47510.53
606.43	47388.83
606.58	47786.72
606.74	47557.35
606.89	47580.75
607.05	47873.32
607.20	47723.52
607.36	46857.52
607.51	46712.41
607.67	46454.95
607.82	46368.35
607.98	46012.59
608.13	46600.07
608.29	46082.81
608.44	46363.67
608.60	46106.21
608.75	46174.09
608.91	46136.64
609.06	46087.49
609.22	46555.60
609.37	45914.29
609.53	46040.68
609.68	45717.68
609.84	45017.86
609.99	44610.61
610.15	45064.67
610.30	45265.96
610.46	45272.98
610.61	45696.62
610.76	46050.04
610.92	46389.42
611.07	46483.04
611.23	46181.11
611.38	46136.64
611.54	45684.92
611.69	45165.32
611.84	44573.16
612.00	44130.80
612.15	44313.36
612.31	44870.41
612.46	44715.93
612.62	44411.67
612.77	44854.03
612.92	44823.60
613.08	44018.46
613.23	43253.10
613.39	42621.16
613.54	42382.42
613.69	42646.90
613.85	42745.20
614.00	43416.94
614.15	43618.22
614.31	44112.08
614.46	43761.00
614.62	44123.78
614.77	44088.67
614.92	43533.96
615.08	43468.43
615.23	42990.96
615.38	43222.67
615.54	42036.02
615.69	41703.67
615.84	40905.54
616.00	40673.83
616.15	40769.79
616.30	41399.40
616.46	40605.95
616.61	40458.50
616.76	41216.83
616.92	41422.80
617.07	41991.55
617.22	42054.75
617.37	42162.41
617.53	42527.53
617.68	42359.02
617.83	42864.57
617.99	42426.89
618.14	42433.91
618.29	42263.05
618.45	42241.99
618.60	41481.31
618.75	41273.01
618.90	41085.76
619.06	41418.12
619.21	41689.62
619.36	42256.03
619.51	41869.84
619.67	41340.88
619.82	42026.66
619.97	41900.27
620.12	41593.66
620.28	41364.29
620.43	41893.25
620.58	41834.74
620.73	41570.25
620.89	41390.03
621.04	41022.57
621.19	40463.18
621.34	40612.98
621.49	40346.15
621.65	40013.80
621.80	40451.48
621.95	40397.65
622.10	40744.05
622.25	40182.32
622.41	40041.88
622.56	39632.29
622.71	39079.92
622.86	39042.48
623.01	39470.79
623.16	39641.65
623.32	39218.02
623.47	39313.98
623.62	39187.59
623.77	38714.80
623.92	39335.04
624.07	37928.38
624.23	37851.14
624.38	38143.71
624.53	38618.84
624.68	38499.47
624.83	37846.46
624.98	37834.76
625.13	37589.00
625.29	37521.13
625.44	37617.09
625.59	37338.57
625.74	37556.24
625.89	37474.32
626.04	37858.17
626.19	37993.92
626.34	38160.09
626.49	38080.52
626.65	37724.75
626.80	37874.55
626.95	37385.38
627.10	37586.66
627.25	36526.40
627.40	35454.44
627.55	35168.89
627.70	34614.18
627.85	34658.65
628.00	35330.39
628.15	35646.36
628.30	36163.62
628.45	35945.95
628.60	35854.67
628.76	36421.08
628.91	36278.30
629.06	35536.35
629.21	35775.09
629.36	35777.43
629.51	35328.05
629.66	35086.97
629.81	34707.80
629.96	34373.11
630.11	35152.51
630.26	35625.29
630.41	35477.84
630.56	35658.06
630.71	35587.85
630.86	35833.60
631.01	34969.94
631.16	34754.61
631.31	33853.51
631.46	34036.07
631.61	34445.66
631.76	34485.45
631.91	34782.70
632.06	35016.75
632.21	35629.98
632.36	35250.81
632.51	35133.78
632.66	35047.18
632.81	35131.44
632.96	34864.62
633.10	34820.15
633.25	34059.48
633.40	34323.96
633.55	34263.10
633.70	34403.53
633.85	34089.90
634.00	33977.56
634.15	34129.69
634.30	34150.76
634.45	34190.55
634.60	33961.17
634.75	34506.52
634.90	34490.13
635.05	34096.92
635.19	34363.75
635.34	34242.04
635.49	34026.71
635.64	33787.97
635.79	33443.91
635.94	32877.51
636.09	33406.47
636.24	33694.35
636.39	33472.00
636.53	33968.19
636.68	33816.06
636.83	33935.43
636.98	34113.31
637.13	33411.15
637.28	34110.97
637.43	33935.43
637.57	34064.16
637.72	33481.36
637.87	33352.63
638.02	33790.31
638.17	34183.52
638.32	33799.68
638.46	33582.01
638.61	33116.24
638.76	33046.02
638.91	32847.08
639.06	32634.09
639.20	32493.66
639.35	32418.76
639.50	31983.42
639.65	31742.35
639.80	32023.21
639.94	32292.37
640.09	32580.26
640.24	32446.85
640.39	31772.77
640.54	31538.72
640.68	31800.86
640.83	31552.76
640.98	31222.75
641.13	31112.74
641.27	31548.08
641.42	31407.65
641.57	31728.30
641.72	31150.19
641.86	31187.64
642.01	31374.88
642.16	31814.90
642.31	31693.19
642.45	31990.44
642.60	31630.00
642.75	31510.63
642.90	30829.54
643.04	31246.15
643.19	30792.09
643.34	31124.44
643.48	30965.29
643.63	30813.15
643.78	30960.61
643.93	31332.75
644.07	31571.49
644.22	31079.97
644.37	30527.61
644.51	30951.24
644.66	30265.47
644.81	30881.03
644.95	30302.92
645.10	30305.26
645.25	30202.27
645.39	30230.36
645.54	30146.10
645.69	30054.82
645.83	29514.16
645.98	29179.46
646.13	29474.37
646.27	29411.17
646.42	29310.53
646.57	29216.91
646.71	29434.58
646.86	28779.23
647.00	29181.80
647.15	29083.50
647.30	28575.60
647.44	28886.89
647.59	28877.53
647.74	28386.02
647.88	28266.65
648.03	28552.20
648.17	28540.49
648.32	28521.77
648.47	28512.41
648.61	28739.44
648.76	28709.01
648.90	27812.59
649.05	27122.13
649.20	26665.72
649.34	26302.94
649.49	26749.98
649.63	27023.83
649.78	27896.85
649.92	28423.47
650.07	28346.23
650.21	28306.44
650.36	28898.59
650.51	28779.23
650.65	28868.17
650.80	28816.68
650.94	28313.46
651.09	27740.03
651.23	27168.94
651.38	26752.32
651.52	27091.70
651.67	27278.94
651.81	27505.98
651.96	27508.32
652.10	27744.71
652.25	27831.31
652.39	27513.00
652.54	28091.11
652.68	27725.99
652.83	27857.06
652.97	27615.98
653.12	27452.14
653.26	27573.85
653.41	27592.58
653.55	27606.62
653.70	27328.10
653.84	27264.90
653.99	27264.90
654.13	26930.20
654.27	26611.89
654.42	26087.61
654.56	26040.80
654.71	25954.20
654.85	26085.27
655.00	25586.74
655.14	25331.62
655.29	25067.14
655.43	24542.86
655.57	23681.54
655.72	22335.73
655.86	20446.92
656.01	19372.61
656.15	19367.93
656.30	20819.07
656.44	21774.00
656.58	22925.55
656.73	23644.09
656.87	24374.34
657.01	24442.21
657.16	25106.93
657.30	25055.43
657.45	25582.06
657.59	25745.89
657.73	25348.00
657.88	25474.39
658.02	25804.41
658.16	25762.28
658.31	25411.20
658.45	25610.14
658.60	25472.05
658.74	25432.26
658.88	24936.07
659.03	24907.98
659.17	24589.67
659.31	24711.38
659.46	24823.72
659.60	24975.86
659.74	25071.82
659.89	25427.58
660.03	25364.39
660.17	25486.09
660.32	25039.05
660.46	24971.18
660.60	25268.42
660.74	25233.32
660.89	24877.55
661.03	24952.45
661.17	25010.96
661.32	25090.54
661.46	25104.59
661.60	24879.89
661.74	25036.71
661.89	24858.83
662.03	25085.86
662.17	24596.69
662.31	24706.70
662.46	25010.96
662.60	24524.13
662.74	24671.59
662.88	24140.29
663.03	23885.17
663.17	23807.93
663.31	23601.96
663.45	24123.90
663.60	23889.85
663.74	23538.77
663.88	23728.35
664.02	23555.15
664.17	23524.72
664.31	23761.12
664.45	23793.89
664.59	23960.06
664.73	23934.32
664.88	24074.75
665.02	23824.31
665.16	23702.61
665.30	23459.19
665.44	23281.31
665.59	23140.88
665.73	23419.40
665.87	22625.96
666.01	22511.27
666.15	22630.64
666.29	22696.17
666.44	22689.15
666.58	22710.22
666.72	22558.08
666.86	23145.56
667.00	23070.66
667.14	22600.21
667.28	22408.29
667.43	22668.09
667.57	22473.82
667.71	22513.61
667.85	22431.69
667.99	22525.32
668.13	22199.98
668.27	22146.15
668.41	22513.61
668.56	22232.75
668.70	22181.26
668.84	22111.04
668.98	22066.57
669.12	22003.38
669.26	21996.35
669.40	21879.33
669.54	21605.49
669.68	21549.31
669.82	21542.29
669.96	21561.02
670.10	21591.44
670.25	21446.33
670.39	21469.73
670.53	21390.16
670.67	21214.62
670.81	21254.40
670.95	20786.30
671.09	20938.43
671.23	21020.35
671.37	20720.76
671.51	20479.69
671.65	20350.96
671.79	20381.38
671.93	20858.85
672.07	20606.08
672.21	20397.77
672.35	20435.22
672.49	20486.71
672.63	20233.93
672.77	20372.02
672.91	20400.11
673.05	20203.50
673.19	20095.84
673.33	19988.18
673.47	20383.73
673.61	20126.27
673.75	20013.92
673.89	19885.19
674.03	19901.58
674.17	19791.57
674.31	19934.34
674.45	19709.65
674.59	19562.20
674.73	19658.16
674.87	19672.20
675.01	19300.06
675.15	19576.24
675.29	19520.07
675.43	18995.79
675.56	19276.65
675.70	19358.57
675.84	19103.45
675.98	18824.93
676.12	19115.16
676.26	19351.55
676.40	18939.62
676.54	18710.24
676.68	18686.84
676.82	18228.09
676.96	18918.55
677.10	18574.49
677.23	18412.99
677.37	18291.29
677.51	18405.97
677.65	18670.45
677.79	18148.51
677.93	17886.37
678.07	18029.15
678.21	17598.49
678.34	17752.96
678.48	17539.97
678.62	17596.15
678.76	17399.54
678.90	17348.05
679.04	17561.04
679.18	17762.33
679.31	17209.96
679.45	17118.68
679.59	17121.02
679.73	17235.70
679.87	17249.75
680.00	16996.97
680.14	16814.41
680.28	16760.58
680.42	16594.40
680.56	16482.05
680.70	16688.02
680.83	16671.64
680.97	16346.30
681.11	16238.64
681.25	16545.25
681.39	16493.76
681.52	16655.25
681.66	16409.50
681.80	16149.70
681.94	16292.47
682.07	16561.63
682.21	16002.24
682.35	16004.58
682.49	15894.58
682.62	15934.37
682.76	15700.31
682.90	15613.71
683.04	15644.14
683.17	15360.94
683.31	15358.60
683.45	15211.14
683.59	15035.60
683.72	14726.65
683.86	14787.50
684.00	14600.26
684.13	14658.78
684.27	14904.53
684.41	14932.62
684.55	14766.44
684.68	15040.28
684.82	14834.32
684.96	14628.35
685.09	14581.54
685.23	14216.41
685.37	14085.34
685.50	14120.45
685.64	13994.06
685.78	13734.26
685.91	13956.61
686.05	14267.91
686.19	13736.60
686.32	12776.98
686.46	11419.47
686.60	10061.96
686.73	9298.95
686.87	8821.48
687.01	8842.54
687.14	8931.48
687.28	9039.15
687.42	9631.30
687.55	9877.06
687.69	10541.77
687.82	11019.24
687.96	11508.41
688.10	11517.78
688.23	11531.82
688.37	11063.71
688.50	10824.98
688.64	10993.50
688.78	10906.90
688.91	10710.29
689.05	10623.69
689.18	10506.66
689.32	10410.70
689.46	10658.80
689.59	10628.37
689.73	10832.00
689.86	10686.89
690.00	10827.32
690.13	10832.00
690.27	10721.99
690.41	10970.09
690.54	10869.45
690.68	10820.30
690.81	10993.50
690.95	11005.20
691.08	10789.87
691.22	10817.96
691.35	10874.13
691.49	11040.31
691.62	10979.45
691.76	11005.20
691.89	11070.73
692.03	10736.04
692.16	10778.17
692.30	10707.95
692.43	10562.84
692.57	10391.98
692.70	10422.41
692.84	10202.40
692.97	10267.93
693.11	10270.27
693.24	10267.93
693.38	10237.50
693.51	10410.70
693.65	10239.84
693.78	9930.89
693.92	9736.63
694.05	10108.77
694.19	9685.14
694.32	9767.06
694.45	9745.99
694.59	9584.49
694.72	9607.90
694.86	9696.84
694.99	9748.33
695.13	9657.05
695.26	9378.53
695.39	9404.27
695.53	9535.34
695.66	9432.36
695.80	9378.53
695.93	9378.53
696.07	9502.58
696.20	9654.71
696.33	9362.14
696.47	9525.98
696.60	9799.82
696.73	9502.58
696.87	9874.72
697.00	9753.01
697.14	9628.96
697.27	9465.13
697.40	9544.70
697.54	9158.52
697.67	9146.81
697.80	8840.20
697.94	8957.23
698.07	9097.66
698.21	8678.71
698.34	8975.95
698.47	8805.10
698.61	8610.83
698.74	8461.04
698.87	8533.59
699.01	8531.25
699.14	8538.27
699.27	8669.34
699.40	8622.53
699.54	8622.53
699.67	8287.84
699.80	8145.06
699.94	8203.58
700.07	8077.19
700.20	7913.35
700.34	7768.24
700.47	7911.01
700.60	8039.74
700.73	7845.48
700.87	7803.35
701.00	7793.98
701.13	7688.66
701.26	7604.40
701.40	7639.51
701.53	7576.31
701.66	7660.57
701.79	7672.28
701.93	7545.89
702.06	7662.91
702.19	7524.82
702.32	7349.28
702.46	7318.86
702.59	7407.80
702.72	7297.79
702.85	7316.51
702.99	7452.27
703.12	7442.90
703.25	7377.37
703.38	7283.75
703.51	7110.55
703.65	7178.42
703.78	7143.32
703.91	7080.12
704.04	7265.02
704.17	7286.09
704.31	7206.51
704.44	7180.76
704.57	7225.23
704.70	7176.08
704.83	6923.30
704.96	6883.52
705.10	6846.07
705.23	6895.22
>>>>>End Processed Spectral Data<<<<<
