SpectraSuite Data File
++++++++++++++++++++++++++++++++++++
Date: Mon Oct 07 14:53:25 GMT-05:00 2013
User: price-jones
Dark Spectrum Present: No
Reference Spectrum Present: No
Number of Sampled Component Spectra: 1
Spectrometers: USB2+H05261
Integration Time (usec): 100000 (USB2+H05261)
Spectra Averaged: 1 (USB2+H05261)
Boxcar Smoothing: 0 (USB2+H05261)
Correct for Electrical Dark: No (USB2+H05261)
Strobe/Lamp Enabled: No (USB2+H05261)
Correct for Detector Non-linearity: No (USB2+H05261)
Correct for Stray Light: No (USB2+H05261)
Number of Pixels in Processed Spectrum: 2048
>>>>>Begin Processed Spectral Data<<<<<
365.73	0.00
365.92	0.00
366.12	0.00
366.32	0.00
366.52	0.00
366.72	0.00
366.91	0.00
367.11	0.00
367.31	0.00
367.51	0.00
367.70	0.00
367.90	0.00
368.10	0.00
368.30	0.00
368.49	0.00
368.69	0.00
368.89	0.00
369.09	0.00
369.28	0.00
369.48	0.00
369.68	0.00
369.87	0.00
370.07	0.00
370.27	0.00
370.47	421.30
370.66	2839.07
370.86	3255.69
371.06	3740.18
371.25	3632.51
371.45	3386.76
371.65	2892.90
371.84	2715.02
372.04	2864.82
372.24	3293.13
372.44	3433.57
372.63	3442.93
372.83	3276.75
373.03	2778.22
373.22	2555.86
373.42	2698.64
373.62	3070.78
373.81	3417.18
374.01	3297.81
374.21	3138.66
374.40	2813.32
374.60	2981.84
374.79	3339.94
374.99	3772.94
375.19	4159.13
375.38	4273.82
375.58	3843.16
375.78	3911.04
375.97	3983.59
376.17	4159.13
376.37	4219.99
376.56	4227.01
376.76	4273.82
376.95	4477.44
377.15	4926.83
377.35	5090.67
377.54	5268.55
377.74	5544.73
377.93	5441.75
378.13	5469.83
378.33	5137.48
378.52	4847.25
378.72	4519.57
378.91	4528.94
379.11	4475.10
379.31	4219.99
379.50	4177.86
379.70	4430.63
379.89	4880.02
380.09	5198.33
380.28	5322.38
380.48	5296.63
380.68	5336.42
380.87	5277.91
381.07	4770.01
381.26	4337.01
381.46	4231.69
381.65	4119.34
381.85	3934.44
382.04	3808.05
382.24	3478.04
382.43	3297.81
382.63	3176.11
382.83	3183.13
383.02	3337.60
383.22	3297.81
383.41	3316.54
383.61	3559.95
383.80	4070.19
384.00	4557.02
384.19	5174.92
384.39	5350.46
384.58	5416.00
384.78	5205.35
384.97	5298.97
385.17	5069.60
385.36	4702.14
385.56	4540.64
385.75	4718.52
385.95	5177.26
386.14	5565.79
386.34	5619.63
386.53	5270.89
386.72	4933.85
386.92	5097.69
387.11	5425.36
387.31	5526.00
387.50	5467.49
387.70	5315.36
387.89	5242.80
388.09	5289.61
388.28	5261.52
388.48	5355.15
388.67	5682.82
388.86	6310.08
389.06	6766.49
389.25	7143.32
389.45	7309.49
389.64	7178.42
389.84	7035.65
390.03	6862.45
390.22	6953.73
390.42	7176.08
390.61	7557.59
390.81	8205.92
391.00	8414.23
391.19	8318.26
391.39	7829.09
391.58	7520.14
391.78	7094.16
391.97	6967.77
392.16	6532.44
392.36	5844.32
392.55	4861.29
392.75	3698.05
392.94	3159.72
393.13	3049.72
393.33	3578.68
393.52	4512.55
393.71	5584.52
393.91	6384.98
394.10	7014.59
394.29	7606.74
394.49	7988.25
394.68	8926.80
394.88	8730.20
395.07	9273.20
395.26	9067.24
395.46	8655.30
395.65	8093.57
395.84	7356.30
396.04	6155.61
396.23	5102.37
396.42	4060.83
396.62	3899.33
396.81	4716.18
397.00	5959.00
397.19	7463.97
397.39	8926.80
397.58	9736.63
397.77	10480.92
397.97	10885.83
398.16	11059.03
398.35	11564.59
398.55	11651.19
398.74	12187.17
398.93	12351.01
399.12	12042.06
399.32	11871.20
399.51	12208.23
399.70	13039.12
399.90	12755.92
400.09	12800.39
400.28	12343.99
400.47	12472.71
400.67	13415.95
400.86	13680.43
401.05	13654.69
401.24	13696.82
401.44	14052.58
401.63	13991.72
401.82	14071.30
402.01	14312.38
402.21	14164.92
402.40	14342.80
402.59	13741.29
402.78	13420.63
402.97	12835.50
403.17	13542.34
403.36	14354.51
403.55	14572.18
403.74	15445.20
403.93	14530.05
404.13	13256.79
404.32	12734.85
404.51	13540.00
404.70	14766.44
404.89	14611.96
405.09	14511.32
405.28	13874.70
405.47	13909.80
405.66	13851.29
405.85	13823.20
406.05	13303.60
406.24	13439.36
406.43	13996.40
406.62	14457.49
406.81	14700.90
407.00	14101.73
407.20	13769.37
407.39	13973.00
407.58	14422.38
407.77	15084.75
407.96	15779.89
408.15	15850.11
408.34	15557.54
408.54	16369.71
408.73	16725.47
408.92	16418.86
409.11	16065.44
409.30	15094.11
409.49	14258.54
409.68	13404.25
409.87	12931.46
410.07	13547.02
410.26	14656.43
410.45	15651.16
410.64	16212.89
410.83	16629.51
411.02	16959.52
411.21	17877.01
411.40	17481.46
411.59	17720.20
411.78	17448.69
411.98	17003.99
412.17	17418.27
412.36	17160.81
412.55	17050.80
412.74	16519.50
412.93	16510.14
413.12	16334.60
413.31	18003.40
413.50	18183.62
413.69	18569.81
413.88	18015.10
414.07	17298.90
414.26	17738.92
414.45	17987.02
414.64	18436.40
414.83	18190.64
415.02	17968.29
415.22	17968.29
415.41	18728.97
415.60	19023.87
415.79	19454.53
415.98	19917.96
416.17	19843.06
416.36	19644.12
416.55	19494.32
416.74	18640.03
416.93	18169.58
417.12	18143.83
417.31	18506.62
417.50	18588.53
417.69	19283.67
417.88	19190.05
418.07	19040.26
418.26	18752.37
418.45	18633.00
418.64	19463.90
418.83	19948.39
419.02	19634.75
419.21	19875.83
419.39	18899.83
419.58	17900.42
419.77	18244.48
419.96	18944.30
420.15	20107.54
420.34	20585.01
420.53	21362.07
420.72	21514.20
420.91	21479.10
421.10	21235.68
421.29	21362.07
421.48	20535.86
421.67	21565.70
421.86	20800.34
422.05	19601.99
422.24	17490.82
422.43	17160.81
422.61	18897.49
422.80	20594.37
422.99	20634.16
423.18	19840.72
423.37	19452.19
423.56	19597.31
423.75	19779.87
423.94	20327.55
424.13	19171.33
424.32	19475.60
424.50	19302.40
424.69	19215.80
424.88	19360.91
425.07	19381.98
425.26	19585.60
425.45	19096.43
425.64	18586.19
425.83	18471.51
426.01	19646.46
426.20	20154.35
426.39	19777.53
426.58	18705.56
426.77	17088.25
426.96	16561.63
427.15	17109.32
427.33	18523.00
427.52	19154.94
427.71	19468.58
427.90	19290.70
428.09	19056.64
428.28	18640.03
428.46	18230.43
428.65	17638.28
428.84	18185.96
429.03	18614.28
429.22	17493.16
429.40	16507.80
429.59	15192.42
429.78	13090.62
429.97	13432.33
430.16	13425.31
430.34	13767.03
430.53	13589.15
430.72	13809.16
430.91	15665.21
431.10	18033.83
431.28	21273.13
431.47	23019.17
431.66	23232.16
431.85	21329.30
432.03	19658.16
432.22	18525.34
432.41	19534.11
432.60	21291.85
432.79	22043.17
432.97	23180.67
433.16	22403.61
433.35	20496.07
433.54	18654.07
433.72	17247.41
433.91	17748.28
434.10	19889.87
434.28	21109.29
434.47	22539.36
434.66	22300.62
434.85	21436.97
435.03	21422.92
435.22	21837.20
435.41	23262.58
435.59	23012.15
435.78	23995.17
435.97	23931.98
436.16	24568.60
436.34	24219.86
436.53	23456.85
436.72	23494.30
436.90	22134.45
437.09	22092.32
437.28	21905.07
437.46	22754.69
437.65	22469.14
437.84	21078.86
438.02	19138.56
438.21	18876.42
438.40	20552.24
438.58	22045.51
438.77	22305.31
438.96	22787.46
439.14	23929.64
439.33	24006.87
439.52	24746.48
439.70	24360.30
439.89	23639.41
440.08	22810.86
440.26	22738.30
440.45	23828.99
440.63	25144.38
440.82	26438.69
441.01	26487.84
441.19	25617.16
441.38	26462.10
441.57	27168.94
441.75	27999.83
441.94	27674.49
442.12	27246.18
442.31	28240.90
442.50	28002.17
442.68	27782.16
442.87	27417.04
443.05	26644.66
443.24	27400.65
443.43	27594.92
443.61	28556.88
443.80	29046.05
443.98	26986.38
444.17	27515.34
444.35	28739.44
444.54	29132.65
444.73	28872.85
444.91	27751.73
445.10	26616.57
445.28	25734.19
445.47	24849.47
445.65	25350.34
445.84	26092.29
446.02	26939.57
446.21	27524.70
446.39	27470.87
446.58	27606.62
446.77	28079.41
446.95	28383.68
447.14	29193.50
447.32	29425.22
447.51	28992.22
447.69	27885.14
447.88	27672.15
448.06	27929.61
448.25	28905.62
448.43	29097.54
448.62	28388.36
448.80	27992.81
448.99	28533.47
449.17	28428.15
449.36	28641.14
449.54	29680.33
449.73	30033.75
449.91	30574.42
450.10	31211.04
450.28	32013.85
450.46	31482.55
450.65	31442.76
450.83	31253.17
451.02	30525.27
451.20	30515.90
451.39	30473.78
451.57	30532.29
451.76	30150.78
451.94	29855.87
452.13	29216.91
452.31	28203.46
452.49	26752.32
452.68	27239.15
452.86	27274.26
453.05	27510.66
453.23	28259.63
453.42	29151.37
453.60	29717.78
453.78	30134.40
453.97	29614.80
454.15	30022.05
454.34	29139.67
454.52	29228.61
454.70	28346.23
454.89	29001.58
455.07	28971.15
455.26	29731.83
455.44	30628.25
455.62	31271.90
455.81	31250.83
455.99	30785.07
456.17	30796.77
456.36	30733.57
456.54	31978.74
456.73	31662.77
456.91	32163.64
457.09	32325.14
457.28	32954.74
457.46	31892.14
457.64	31414.67
457.83	30586.12
458.01	29523.52
458.19	30281.85
458.38	30953.58
458.56	31601.91
458.74	31735.32
458.93	31292.96
459.11	30920.82
459.29	30941.88
459.48	31124.44
459.66	30768.68
459.84	31061.25
460.03	31777.45
460.21	31482.55
460.39	32144.92
460.57	32442.17
460.76	32751.12
460.94	32769.84
461.12	32161.30
461.31	32547.49
461.49	32264.28
461.67	32336.84
461.85	33628.82
462.04	33312.84
462.22	33598.39
462.40	33429.87
462.59	33085.81
462.77	33247.31
462.95	33345.61
463.13	32795.59
463.32	32638.77
463.50	32278.33
463.68	32194.07
463.86	32451.53
464.05	31828.95
464.23	31194.66
464.41	31344.45
464.59	30490.16
464.78	32156.62
464.96	32278.33
465.14	31798.52
465.32	32390.67
465.50	33352.63
465.69	33656.90
465.87	33048.36
466.05	31967.04
466.23	30735.92
466.41	29905.02
466.60	30979.33
466.78	30911.46
466.96	31152.53
467.14	31747.03
467.32	32355.57
467.51	32311.10
467.69	30829.54
467.87	31409.99
468.05	32102.79
468.23	31967.04
468.41	31971.72
468.60	32369.61
468.78	32383.65
468.96	31948.31
469.14	32540.47
469.32	32924.32
469.50	31637.02
469.69	31861.71
469.87	31395.95
470.05	30998.06
470.23	30888.05
470.41	31470.84
470.59	31831.29
470.77	31758.73
470.95	32144.92
471.14	32917.29
471.32	32779.20
471.50	34724.19
471.68	34890.37
471.86	35346.77
472.04	34717.17
472.22	35255.49
472.40	34218.63
472.58	33273.06
472.77	32851.76
472.95	33795.00
473.13	34237.36
473.31	33415.83
473.49	33710.74
473.67	34433.96
473.85	34649.29
474.03	35606.57
474.21	35290.60
474.39	35899.14
474.57	35967.01
474.75	35950.63
474.93	35821.90
475.12	35070.59
475.30	34941.86
475.48	35409.96
475.66	35878.07
475.84	35206.34
476.02	34979.31
476.20	34993.35
476.38	35189.95
476.56	36655.13
476.74	36643.43
476.92	37001.53
477.10	37874.55
477.28	38265.42
477.46	38183.50
477.64	38827.15
477.82	38953.54
478.00	38962.90
478.18	38424.57
478.36	38335.63
478.54	38213.93
478.72	38780.34
478.90	39910.82
479.08	41071.72
479.26	41432.16
479.44	41247.26
479.62	40765.11
479.80	40388.28
479.98	40568.51
480.16	41106.83
480.34	40772.13
480.52	41291.73
480.70	41345.56
480.88	41769.20
481.06	42574.34
481.24	42637.54
481.41	43311.61
481.59	43978.67
481.77	43807.81
481.95	43140.75
482.13	42855.21
482.31	43005.00
482.49	43681.42
482.67	43995.05
482.85	43782.06
483.03	44355.49
483.21	44673.81
483.39	44856.37
483.57	44095.69
483.74	43896.75
483.92	43992.71
484.10	44065.27
484.28	45303.41
484.46	45642.79
484.64	46202.18
484.82	44807.22
485.00	44673.81
485.18	43718.87
485.35	42679.67
485.53	39304.62
485.71	35861.69
485.89	35328.05
486.07	37738.80
486.25	40680.85
486.43	42433.91
486.61	43552.69
486.78	43515.24
486.96	43283.53
487.14	45146.59
487.32	46555.60
487.50	47093.92
487.68	48222.06
487.85	48760.38
488.03	48786.13
488.21	48198.65
488.39	47618.20
488.57	46740.50
488.75	46494.74
488.92	47819.49
489.10	50068.74
489.28	51562.00
489.46	52252.46
489.64	51917.76
489.81	51917.76
489.99	51613.49
490.17	51709.46
490.35	52116.71
490.53	51428.59
490.70	51365.40
490.88	51257.73
491.06	52100.32
491.24	52126.07
491.41	50965.17
491.59	49389.98
491.77	48643.35
491.95	49612.34
492.13	50880.91
492.30	52245.44
492.48	53221.44
492.66	53778.49
492.84	53769.13
493.01	53205.06
493.19	52853.98
493.37	52465.45
493.54	52310.97
493.72	53024.84
493.90	53886.15
494.08	54543.84
494.25	55140.68
494.43	55133.66
494.61	55583.04
494.79	55618.15
494.96	55622.83
495.14	54974.50
495.32	53722.32
495.49	53319.74
495.67	54199.79
495.85	55554.96
496.02	56123.71
496.20	55810.07
496.38	55629.85
496.55	55274.09
496.73	55779.65
496.91	55854.54
497.09	56456.06
497.26	56617.56
497.44	56287.54
497.62	55777.31
497.79	54499.37
497.97	53542.10
498.14	53586.57
498.32	55173.45
498.50	55744.54
498.67	56530.96
498.85	55969.23
499.03	56324.99
499.20	56530.96
499.38	56626.92
499.56	56315.63
499.73	55896.67
499.91	55636.87
500.08	55011.95
500.26	54504.06
500.44	54822.37
500.61	55653.26
500.79	55435.59
500.97	55136.00
501.14	54700.66
501.32	54688.96
501.49	54724.07
501.67	54822.37
501.84	55356.01
502.02	55592.40
502.20	56020.72
502.37	56303.93
502.55	56107.32
502.72	56715.86
502.90	57301.00
503.07	56896.08
503.25	56570.75
503.43	55791.35
503.60	54878.54
503.78	54286.39
503.95	54883.22
504.13	56182.22
504.30	56992.04
504.48	56781.40
504.65	56512.23
504.83	56676.07
505.01	57312.70
505.18	57661.44
505.36	57907.19
505.53	58136.57
505.71	58408.07
505.88	58356.58
506.06	57818.25
506.23	57396.96
506.41	57059.92
506.58	57254.18
506.76	57277.59
506.93	57207.37
507.11	56954.60
507.28	57251.84
507.46	56568.41
507.63	55955.19
507.81	56121.37
507.98	56144.77
508.16	56952.26
508.33	57277.59
508.50	57785.49
508.68	58202.10
508.85	58546.16
509.03	58644.46
509.20	58522.76
509.38	57488.24
509.55	56818.84
509.73	56891.40
509.90	57434.41
510.08	57670.80
510.25	57631.01
510.42	57595.90
510.60	57481.22
510.77	57631.01
510.95	58113.16
511.12	58394.03
511.30	58698.30
511.47	59091.51
511.64	58831.71
511.82	58623.40
511.99	57499.94
512.17	57455.47
512.34	57123.11
512.51	57368.87
512.69	57167.58
512.86	57301.00
513.04	57759.74
513.21	57844.00
513.38	57181.63
513.56	56912.47
513.73	56437.34
513.90	56811.82
514.08	56697.14
514.25	56994.39
514.43	57176.95
514.60	57532.71
514.77	57375.89
514.95	57394.62
515.12	57485.90
515.29	57762.08
515.47	58185.72
515.64	58281.68
515.81	57949.32
515.99	57296.31
516.16	55866.25
516.33	53705.93
516.51	52231.40
516.68	51262.41
516.85	50873.88
517.03	51023.68
517.20	54298.09
517.37	56619.90
517.54	57460.15
517.72	56980.34
517.89	54555.55
518.06	52296.93
518.24	52575.45
518.41	54801.30
518.58	56191.58
518.75	56367.12
518.93	56502.87
519.10	56238.39
519.27	56776.72
519.45	57183.97
519.62	57792.51
519.79	58166.99
519.96	57652.08
520.14	57532.71
520.31	56610.54
520.48	56631.60
520.65	57092.69
520.83	57881.45
521.00	58253.59
521.17	57970.39
521.34	57382.91
521.52	57939.96
521.69	58354.24
521.86	58930.01
522.03	58454.88
522.20	57289.29
522.38	56191.58
522.55	56268.82
522.72	56680.75
522.89	56891.40
523.07	57172.27
523.24	57757.40
523.41	58459.56
523.58	58803.62
523.75	59025.97
523.92	58962.78
524.10	58969.80
524.27	58976.82
524.44	58597.65
524.61	58621.06
524.78	58358.92
524.96	58274.66
525.13	58436.16
525.30	58532.12
525.47	58843.41
525.64	59023.63
525.81	58372.96
525.98	56713.52
526.16	55260.05
526.33	54836.41
526.50	54251.28
526.67	53975.09
526.84	54700.66
527.01	55421.55
527.18	56453.72
527.36	57174.61
527.53	58195.08
527.70	58312.11
527.87	57815.91
528.04	57460.15
528.21	57869.75
528.38	58581.27
528.55	59063.42
528.72	59332.58
528.89	59540.89
529.07	59260.02
529.24	58705.32
529.41	57909.53
529.58	57467.17
529.75	57602.92
529.92	57918.90
530.09	58372.96
530.26	58766.17
530.43	59068.10
530.60	59260.02
530.77	59402.80
530.94	59599.40
531.11	59021.29
531.28	58712.34
531.46	58581.27
531.63	58749.79
531.80	58539.14
531.97	58178.70
532.14	57265.89
532.31	56449.04
532.48	55676.66
532.65	55702.41
532.82	56577.77
532.99	57368.87
533.16	58089.76
533.33	58539.14
533.50	58241.89
533.67	57790.17
533.84	57539.73
534.01	57502.28
534.18	57771.44
534.35	57893.15
534.52	57944.64
534.69	58045.29
534.86	58403.39
535.03	58553.18
535.20	59030.65
535.37	59250.66
535.54	59304.49
535.71	59065.76
535.88	58754.47
536.05	58134.23
536.22	57755.06
536.38	57619.31
536.55	56978.00
536.72	56612.88
536.89	56301.59
537.06	57286.95
537.23	58019.54
537.40	58424.45
537.57	58382.32
537.74	58199.76
537.91	58068.69
538.08	57895.49
538.25	57993.79
538.42	58335.51
538.59	58005.50
538.75	57291.63
538.92	56980.34
539.09	56954.60
539.26	56795.44
539.43	56561.39
539.60	56652.67
539.77	56868.00
539.94	56825.87
540.11	55962.21
540.28	55449.63
540.44	55735.18
540.61	55913.06
540.78	56046.47
540.95	56673.73
541.12	56982.68
541.29	57277.59
541.46	57635.69
541.62	57539.73
541.79	57228.44
541.96	56687.78
542.13	56816.50
542.30	57198.01
542.47	57312.70
542.63	56933.53
542.80	56849.27
542.97	57022.47
543.14	56865.66
543.31	56729.90
543.48	57200.35
543.64	57846.34
543.81	58422.11
543.98	58169.33
544.15	57382.91
544.32	57106.73
544.48	56942.89
544.65	57619.31
544.82	57914.22
544.99	57556.11
545.16	56973.32
545.32	57010.77
545.49	57822.93
545.66	58110.82
545.83	57595.90
546.00	57490.58
546.16	56839.91
546.33	57125.46
546.50	57120.77
546.67	57572.50
546.83	57052.90
547.00	57200.35
547.17	56397.55
547.34	55796.03
547.50	55779.65
547.67	56069.87
547.84	56334.35
548.00	56687.78
548.17	57226.10
548.34	56968.64
548.51	57059.92
548.67	56989.70
548.84	57308.02
549.01	57291.63
549.18	56802.46
549.34	56912.47
549.51	57066.94
549.68	56837.57
549.84	56521.60
550.01	56748.63
550.18	56402.23
550.34	56350.74
550.51	56601.18
550.68	56587.13
550.84	56027.74
551.01	56423.29
551.18	56427.98
551.34	56425.64
551.51	56746.29
551.68	57111.41
551.84	56978.00
552.01	56928.85
552.18	56753.31
552.34	55873.27
552.51	55494.10
552.68	55407.50
552.84	56013.70
553.01	56324.99
553.18	56165.84
553.34	56423.29
553.51	56530.96
553.67	56875.02
553.84	56729.90
554.01	56781.40
554.17	56535.64
554.34	56619.90
554.51	56687.78
554.67	57099.71
554.84	56650.33
555.00	56523.94
555.17	56495.85
555.33	56299.25
555.50	56357.76
555.67	56032.42
555.83	55992.64
556.00	55723.47
556.16	55833.48
556.33	55227.28
556.50	55033.02
556.66	55061.10
556.83	55011.95
556.99	55089.19
557.16	55196.85
557.32	55517.51
557.49	55634.53
557.65	55611.13
557.82	55664.96
557.98	55477.72
558.15	54728.75
558.32	53979.78
558.48	53738.70
558.65	53418.05
558.81	54017.22
558.98	53860.41
559.14	54583.63
559.31	54588.31
559.47	54557.89
559.64	54223.19
559.80	53799.55
559.97	53832.32
560.13	54363.62
560.30	55344.31
560.46	55702.41
560.63	55957.53
560.79	55969.23
560.96	55650.92
561.12	54473.63
561.29	53532.73
561.45	53670.82
561.61	54258.30
561.78	54677.25
561.94	54452.56
562.11	54262.98
562.27	54377.67
562.44	54738.11
562.60	55103.23
562.77	55103.23
562.93	54990.89
563.10	54857.48
563.26	54204.47
563.42	54513.42
563.59	54363.62
563.75	54000.84
563.92	54244.26
564.08	54064.03
564.24	54513.42
564.41	54738.11
564.57	54611.72
564.74	54225.53
564.90	54028.93
565.07	53918.92
565.23	53404.00
565.39	53146.54
565.56	53127.82
565.72	52514.60
565.88	52942.92
566.05	53228.46
566.21	53595.93
566.38	53778.49
566.54	53509.33
566.70	53820.62
566.87	54176.38
567.03	54117.87
567.19	54410.43
567.36	54291.07
567.52	54059.35
567.68	53694.23
567.85	52903.13
568.01	52488.85
568.17	52238.42
568.34	52039.47
568.50	51913.08
568.66	52219.69
568.83	52811.85
568.99	52743.97
569.15	53022.50
569.32	53174.63
569.48	52659.71
569.64	52552.05
569.81	52161.18
569.97	52222.03
570.13	51650.94
570.30	51531.57
570.46	50824.73
570.62	50314.50
570.78	50382.37
570.95	50602.38
571.11	51377.10
571.27	51491.79
571.43	51569.02
571.60	52428.00
571.76	52128.41
571.92	52732.27
572.09	52865.68
572.25	52706.52
572.41	52755.68
572.57	52559.07
572.74	52790.78
572.90	52233.74
573.06	52205.65
573.22	52142.45
573.38	52348.42
573.55	52072.24
573.71	52449.06
573.87	52203.31
574.03	51562.00
574.20	52004.36
574.36	51461.36
574.52	51320.93
574.68	51503.49
574.84	50827.07
575.01	50705.37
575.17	50394.07
575.33	50688.98
575.49	51086.87
575.65	51084.53
575.82	51114.96
575.98	50536.85
576.14	51182.84
576.30	51334.97
576.46	51323.27
576.62	51098.58
576.79	50742.81
576.95	50918.35
577.11	50602.38
577.27	50586.00
577.43	50965.17
577.59	50564.93
577.75	50258.32
577.92	49673.19
578.08	49191.04
578.24	49181.68
578.40	49546.80
578.56	49872.14
578.72	49996.18
578.88	49766.81
579.04	50071.08
579.21	50295.77
579.37	50286.41
579.53	50602.38
579.69	50581.32
579.85	50630.47
580.01	50314.50
580.17	49991.50
580.33	49717.66
580.49	49848.73
580.65	50155.34
580.82	50223.22
580.98	50433.86
581.14	50288.75
581.30	50284.07
581.46	50403.44
581.62	50686.64
581.78	50377.69
581.94	50707.71
582.10	50916.01
582.26	50841.12
582.42	50473.65
582.58	50525.14
582.74	50574.30
582.90	50576.64
583.06	50529.83
583.22	50415.14
583.38	50312.16
583.54	50347.26
583.70	50073.42
583.86	50115.55
584.02	49659.15
584.18	50138.96
584.34	49640.42
584.50	50052.36
584.66	49401.69
584.82	49371.26
584.98	49471.90
585.14	48917.20
585.30	47908.43
585.46	47559.69
585.62	47929.49
585.78	48147.16
585.94	48313.34
586.10	48776.76
586.26	48671.44
586.42	49148.91
586.58	49549.14
586.74	48980.39
586.90	48959.33
587.06	48779.10
587.22	48999.12
587.38	48648.03
587.54	48535.69
587.70	48495.90
587.86	47777.36
588.02	47264.78
588.18	47068.17
588.34	45549.17
588.49	43398.21
588.65	41670.90
588.81	41605.36
588.97	41731.75
589.13	41195.77
589.29	41331.52
589.45	42323.91
589.61	43105.65
589.77	44751.04
589.93	45291.71
590.08	46344.95
590.24	46642.20
590.40	47189.88
590.56	46890.29
590.72	46450.27
590.88	46075.79
591.04	45834.71
591.20	45488.31
591.35	45727.05
591.51	46394.10
591.67	45839.39
591.83	45923.65
591.99	45951.74
592.15	46176.43
592.31	46363.67
592.46	46433.89
592.62	46005.57
592.78	45354.90
592.94	45785.56
593.10	45633.42
593.26	46508.79
593.41	46607.09
593.57	46319.20
593.73	45743.43
593.89	45127.87
594.05	44818.92
594.20	44313.36
594.36	44257.19
594.52	43973.98
594.68	44348.47
594.84	44554.44
594.99	45345.54
595.15	45130.21
595.31	45284.68
595.47	45083.40
595.62	45202.77
595.78	45652.15
595.94	45649.81
596.10	45811.31
596.25	45261.28
596.41	45071.70
596.57	44685.51
596.73	45481.29
596.88	45127.87
597.04	45045.95
597.20	44751.04
597.36	44425.71
597.51	44715.93
597.67	44877.43
597.83	44650.40
597.99	44524.01
598.14	43540.99
598.30	44292.30
598.46	44004.41
598.61	44318.04
598.77	44313.36
598.93	44575.50
599.09	44617.63
599.24	44641.04
599.40	44474.86
599.56	44467.84
599.71	44547.42
599.87	44680.83
600.03	44069.95
600.18	43576.09
600.34	43344.38
600.50	43232.04
600.65	43454.39
600.81	43988.03
600.97	43835.89
601.12	43672.06
601.28	43627.59
601.44	43597.16
601.59	43388.85
601.75	42658.60
601.91	42913.72
602.06	43103.31
602.22	43372.47
602.37	42962.87
602.53	43173.52
602.69	43508.22
602.84	43079.90
603.00	44278.25
603.16	44254.85
603.31	43966.96
603.47	44226.76
603.62	43487.15
603.78	43899.09
603.94	43213.31
604.09	43180.54
604.25	43257.78
604.40	42838.83
604.56	43508.22
604.71	43491.83
604.87	43283.53
605.03	43049.47
605.18	42890.32
605.34	43274.16
605.49	42719.46
605.65	43103.31
605.80	42696.05
605.96	42431.57
606.12	41858.14
606.27	42150.71
606.43	42007.94
606.58	42492.43
606.74	42782.65
606.89	42576.69
607.05	42909.04
607.20	42719.46
607.36	42192.84
607.51	41481.31
607.67	41544.51
607.82	41729.41
607.98	41418.12
608.13	41532.81
608.29	40666.81
608.44	41439.18
608.60	40912.56
608.75	41310.46
608.91	41195.77
609.06	40730.00
609.22	41064.70
609.37	41132.57
609.53	40980.44
609.68	40680.85
609.84	39693.15
609.99	39627.61
610.15	39590.16
610.30	40191.68
610.46	40154.23
610.61	40811.92
610.76	41104.49
610.92	41649.83
611.07	41434.50
611.23	41319.82
611.38	41483.66
611.54	40746.39
611.69	40322.75
611.84	39761.02
612.00	39285.89
612.15	39133.76
612.31	39807.83
612.46	39325.68
612.62	39754.00
612.77	39943.58
612.92	40355.52
613.08	39199.29
613.23	38728.84
613.39	37628.79
613.54	37699.01
613.69	37881.57
613.85	38040.73
614.00	38265.42
614.15	39019.07
614.31	38321.59
614.46	38876.30
614.62	38796.72
614.77	39131.42
614.92	38773.31
615.08	38380.10
615.23	38501.81
615.38	38239.67
615.54	37490.70
615.69	36734.71
615.84	35578.48
616.00	35784.45
616.15	36294.69
616.30	36488.95
616.46	36369.58
616.61	36290.01
616.76	36786.20
616.92	36966.42
617.07	37298.78
617.22	37404.10
617.37	37628.79
617.53	37422.83
617.68	37462.61
617.83	37886.25
617.99	37670.92
618.14	37621.77
618.29	37682.62
618.45	37020.25
618.60	36680.88
618.75	36392.99
618.90	36240.86
619.06	36786.20
619.21	37081.11
619.36	37266.01
619.51	37214.52
619.67	37053.02
619.82	36699.60
619.97	36989.83
620.12	36760.45
620.28	36814.29
620.43	37177.07
620.58	36678.54
620.73	36840.03
620.89	37132.60
621.04	36357.88
621.19	35955.31
621.34	35739.98
621.49	35531.67
621.65	35524.65
621.80	36053.61
621.95	35613.59
622.10	35941.27
622.25	35615.93
622.41	35332.73
622.56	35257.83
622.71	34946.54
622.86	34588.44
623.01	35178.25
623.16	35349.11
623.32	34920.79
623.47	34630.57
623.62	35138.46
623.77	34696.10
623.92	34361.40
624.07	33895.64
624.23	33696.69
624.38	33537.54
624.53	33799.68
624.68	33935.43
624.83	33790.31
624.98	33460.30
625.13	33050.70
625.29	33097.52
625.44	33020.28
625.59	33390.08
625.74	33560.94
625.89	33401.79
626.04	33411.15
626.19	33518.81
626.34	33614.77
626.49	33455.62
626.65	33656.90
626.80	33783.29
626.95	33495.41
627.10	32961.76
627.25	32503.02
627.40	31601.91
627.55	31103.38
627.70	30635.27
627.85	30747.62
628.00	31538.72
628.15	31686.17
628.30	31871.07
628.45	31997.46
628.60	32048.96
628.76	32194.07
628.91	31938.95
629.06	31784.48
629.21	31952.99
629.36	31365.52
629.51	31110.40
629.66	30785.07
629.81	30663.36
629.96	30581.44
630.11	31150.19
630.26	31358.50
630.41	30991.03
630.56	31068.27
630.71	31569.15
630.86	31498.93
631.01	30951.24
631.16	30677.40
631.31	30251.42
631.46	30008.01
631.61	30506.54
631.76	30562.72
631.91	30576.76
632.06	30960.61
632.21	31498.93
632.36	31021.46
632.51	30876.35
632.66	31168.91
632.81	30960.61
632.96	30939.54
633.10	30923.16
633.25	31145.51
633.40	30426.96
633.55	30635.27
633.70	30408.24
633.85	30164.82
634.00	30487.82
634.15	29947.15
634.30	30513.56
634.45	30319.30
634.60	30321.64
634.75	30398.88
634.90	30291.21
635.05	30574.42
635.19	30565.06
635.34	30326.32
635.49	29898.00
635.64	30003.33
635.79	29703.74
635.94	29289.46
636.09	29818.42
636.24	29340.96
636.39	29780.98
636.53	29804.38
636.68	29944.81
636.83	30237.38
636.98	30380.15
637.13	30543.99
637.28	30148.44
637.43	30607.19
637.57	30167.16
637.72	29937.79
637.87	30375.47
638.02	29685.01
638.17	30024.39
638.32	29780.98
638.46	29979.92
638.61	29738.85
638.76	29436.92
638.91	29200.52
639.06	28772.21
639.20	29010.94
639.35	29237.97
639.50	28622.41
639.65	28341.55
639.80	28554.54
639.94	28613.05
640.09	28701.99
640.24	29088.18
640.39	28676.24
640.54	28093.45
640.68	28201.11
640.83	28315.80
640.98	27805.56
641.13	27901.53
641.27	28219.84
641.42	27960.04
641.57	28229.20
641.72	28009.19
641.86	27835.99
642.01	27915.57
642.16	28201.11
642.31	28301.76
642.45	28030.26
642.60	28222.18
642.75	28056.00
642.90	27791.52
643.04	27756.41
643.19	27946.00
643.34	27828.97
643.48	27569.17
643.63	27204.05
643.78	27199.37
643.93	27751.73
644.07	27730.67
644.22	27821.95
644.37	27508.32
644.51	27250.86
644.66	27480.23
644.81	27056.59
644.95	27241.50
645.10	27103.40
645.25	26595.51
645.39	26635.30
645.54	26206.98
645.69	26391.88
645.83	26148.46
645.98	25820.79
646.13	26113.36
646.27	25977.61
646.42	25949.52
646.57	25860.58
646.71	25933.14
646.86	25645.25
647.00	25642.91
647.15	25369.07
647.30	25406.52
647.44	25298.85
647.59	25364.39
647.74	25142.03
647.88	25151.40
648.03	25085.86
648.17	25432.26
648.32	25397.15
648.47	25523.54
648.61	25479.07
648.76	25158.42
648.90	24627.12
649.05	24072.41
649.20	23833.68
649.34	23576.22
649.49	23559.83
649.63	24081.77
649.78	24350.93
649.92	24886.92
650.07	25453.33
650.21	25034.37
650.36	25572.69
650.51	25701.42
650.65	25549.29
650.80	25450.99
650.94	25034.37
651.09	24861.17
651.23	24126.24
651.38	23992.83
651.52	24006.87
651.67	24208.16
651.81	24664.57
651.96	24601.37
652.10	25078.84
652.25	24821.38
652.39	24840.11
652.54	24931.39
652.68	24659.88
652.83	24872.87
652.97	24636.48
653.12	24423.49
653.26	24680.95
653.41	24725.42
653.55	24486.68
653.70	24767.55
653.84	24524.13
653.99	24219.86
654.13	23826.65
654.27	23393.65
654.42	23199.39
654.56	23285.99
654.71	23396.00
654.85	23421.74
655.00	23147.90
655.14	22766.39
655.29	22363.82
655.43	22005.72
655.57	21277.81
655.72	19550.49
655.86	18064.25
656.01	17158.47
656.15	17441.67
656.30	18492.57
656.44	19702.63
656.58	20453.94
656.73	21010.99
656.87	21193.55
657.01	21748.26
657.16	22059.55
657.30	22642.34
657.45	22691.49
657.59	22888.10
657.73	22742.99
657.88	22902.14
658.02	22934.91
658.16	23061.30
658.31	22775.75
658.45	22661.07
658.60	22338.07
658.74	22373.18
658.88	22157.85
659.03	21912.10
659.17	22071.25
659.31	22270.20
659.46	22221.05
659.60	22796.82
659.74	22668.09
659.89	22611.92
660.03	22876.40
660.17	22967.68
660.32	22747.67
660.46	22581.49
660.60	22441.06
660.74	22139.13
660.89	22185.94
661.03	22155.51
661.17	22616.60
661.32	22286.58
661.46	22572.13
661.60	22422.33
661.74	22253.81
661.89	22487.87
662.03	22237.43
662.17	22211.68
662.31	22101.68
662.46	22094.66
662.60	22207.00
662.74	22059.55
662.88	21741.24
663.03	21502.50
663.17	21188.87
663.31	20971.20
663.45	21458.03
663.60	21673.36
663.74	21289.51
663.88	21048.44
664.02	20952.48
664.17	21469.73
664.31	21036.74
664.45	21326.96
664.59	21294.19
664.73	21523.57
664.88	20992.26
665.02	21041.42
665.16	21181.85
665.30	20943.11
665.44	20898.64
665.59	20739.49
665.73	20603.74
665.87	20299.47
666.01	20240.95
666.15	20264.36
666.29	20425.86
666.44	20297.13
666.58	20348.62
666.72	20325.21
666.86	20589.69
667.00	20631.82
667.14	20379.04
667.28	20393.09
667.43	19871.15
667.57	20149.67
667.71	20123.93
667.85	19976.47
667.99	19934.34
668.13	19908.60
668.27	19985.83
668.41	19765.82
668.56	19756.46
668.70	20046.69
668.84	20060.73
668.98	19847.74
669.12	19728.38
669.26	19751.78
669.40	19021.53
669.54	19477.94
669.68	19365.59
669.82	19293.04
669.96	19255.59
670.10	18773.44
670.25	19199.41
670.39	18911.53
670.53	19140.90
670.67	18773.44
670.81	18764.07
670.95	18867.06
671.09	18831.95
671.23	18092.34
671.37	18569.81
671.51	18455.12
671.65	18590.88
671.79	18436.40
671.93	18459.81
672.07	18401.29
672.21	18300.65
672.35	18286.61
672.49	18427.04
672.63	18352.14
672.77	18281.92
672.91	18190.64
673.05	18085.32
673.19	18228.09
673.33	18090.00
673.47	18094.68
673.61	18066.60
673.75	18003.40
673.89	17790.41
674.03	17877.01
674.17	17755.30
674.31	17977.65
674.45	17816.16
674.59	17544.66
674.73	17628.92
674.87	17722.54
675.01	17266.13
675.15	17394.86
675.29	17198.26
675.43	17027.40
675.56	17144.42
675.70	17078.89
675.84	17216.98
675.98	17128.04
676.12	17053.14
676.26	17069.53
676.40	16980.59
676.54	17003.99
676.68	16842.50
676.82	16353.32
676.96	16594.40
677.10	16751.21
677.23	16737.17
677.37	16547.59
677.51	16531.20
677.65	16678.66
677.79	16023.31
677.93	16072.46
678.07	16102.89
678.21	15730.74
678.34	15882.88
678.48	15634.78
678.62	15882.88
678.76	15735.42
678.90	15690.95
679.04	15463.92
679.18	16027.99
679.31	15754.15
679.45	15248.59
679.59	15541.16
679.73	15580.95
679.87	15318.81
680.00	15267.31
680.14	15229.87
680.28	15094.11
680.42	14878.79
680.56	14923.26
680.70	14516.00
680.83	15047.30
680.97	14525.36
681.11	14752.40
681.25	14604.94
681.39	14846.02
681.52	14658.78
681.66	14754.74
681.80	14810.91
681.94	14693.88
682.07	14431.74
682.21	14754.74
682.35	14333.44
682.49	14347.48
682.62	14242.16
682.76	13923.85
682.90	14003.43
683.04	13830.23
683.17	14061.94
683.31	14195.35
683.45	13642.98
683.59	13509.57
683.72	13472.12
683.86	13308.29
684.00	13238.07
684.13	13095.30
684.27	13163.17
684.41	13397.23
684.55	13291.90
684.68	13078.91
684.82	13111.68
684.96	13125.72
685.09	13167.85
685.23	13181.90
685.37	12837.84
685.50	12828.48
685.64	12858.90
685.78	12594.42
685.91	12587.40
686.05	12610.81
686.19	12205.89
686.32	11487.35
686.46	10193.03
686.60	9008.72
686.73	8561.68
686.87	7960.16
687.01	7875.90
687.14	7852.50
687.28	8180.17
687.42	8489.12
687.55	8943.19
687.69	9671.09
687.82	9886.42
687.96	10286.65
688.10	10097.07
688.23	10153.24
688.37	10010.47
688.50	9921.53
688.64	9984.73
688.78	9668.75
688.91	9596.20
689.05	9682.80
689.18	9612.58
689.32	9359.80
689.46	9479.17
689.59	9617.26
689.73	9635.99
689.86	9823.23
690.00	9530.66
690.13	9645.35
690.27	9790.46
690.41	9514.28
690.54	9886.42
690.68	9678.12
690.81	9750.67
690.95	9867.70
691.08	10015.15
691.22	9680.46
691.35	9886.42
691.49	9940.26
691.62	9762.37
691.76	9797.48
691.89	9919.19
692.03	9806.84
692.16	9528.32
692.30	9423.00
692.43	9514.28
692.57	9453.42
692.70	9352.78
692.84	9224.05
692.97	9397.25
693.11	9083.62
693.24	9125.75
693.38	9109.36
693.51	9128.09
693.65	9006.38
693.78	8762.97
693.92	8805.10
694.05	8870.63
694.19	8769.99
694.32	8823.82
694.45	8982.98
694.59	8798.07
694.72	8723.18
694.86	8896.38
694.99	8564.02
695.13	8865.95
695.26	8887.01
695.39	8472.74
695.53	8334.65
695.66	8421.25
695.80	8397.84
695.93	8662.32
696.07	8510.19
696.20	8830.84
696.33	8748.92
696.47	8781.69
696.60	8945.53
696.73	8940.85
696.87	8805.10
697.00	8758.28
697.14	8561.68
697.27	8514.87
697.40	8662.32
697.54	8322.94
697.67	8243.37
697.80	7992.93
697.94	8063.15
698.07	8170.81
698.21	8215.28
698.34	7885.26
698.47	7786.96
698.61	7625.47
698.74	7435.88
698.87	7660.57
699.01	7698.02
699.14	7597.38
699.27	7829.09
699.40	7611.42
699.54	7733.13
699.67	7454.61
699.80	7529.50
699.94	7627.81
700.07	7267.36
700.20	7346.94
700.34	7033.31
700.47	6937.35
700.60	7229.91
700.73	7180.76
700.87	7159.70
701.00	7197.15
701.13	6846.07
701.26	6881.18
701.40	6916.28
701.53	6785.21
701.66	6958.41
701.79	6869.47
701.93	6869.47
702.06	6883.52
702.19	6766.49
702.32	6780.53
702.46	6616.69
702.59	6544.14
702.72	6600.31
702.85	6841.39
702.99	6593.29
703.12	6789.89
703.25	6516.05
703.38	6630.74
703.51	6494.99
703.65	6274.98
703.78	6345.19
703.91	6478.60
704.04	6476.26
704.17	6497.33
704.31	6380.30
704.44	6441.15
704.57	6534.78
704.70	6420.09
704.83	6270.30
704.96	6436.47
705.10	6267.95
705.23	6183.70
>>>>>End Processed Spectral Data<<<<<
