SpectraSuite Data File
++++++++++++++++++++++++++++++++++++
Date: Mon Oct 07 14:55:01 GMT-05:00 2013
User: price-jones
Dark Spectrum Present: No
Reference Spectrum Present: No
Number of Sampled Component Spectra: 1
Spectrometers: USB2+H05261
Integration Time (usec): 10000 (USB2+H05261)
Spectra Averaged: 1 (USB2+H05261)
Boxcar Smoothing: 0 (USB2+H05261)
Correct for Electrical Dark: No (USB2+H05261)
Strobe/Lamp Enabled: No (USB2+H05261)
Correct for Detector Non-linearity: No (USB2+H05261)
Correct for Stray Light: No (USB2+H05261)
Number of Pixels in Processed Spectrum: 2048
>>>>>Begin Processed Spectral Data<<<<<
365.73	0.00
365.92	0.00
366.12	0.00
366.32	0.00
366.52	0.00
366.72	0.00
366.91	0.00
367.11	0.00
367.31	0.00
367.51	0.00
367.70	0.00
367.90	0.00
368.10	0.00
368.30	0.00
368.49	0.00
368.69	0.00
368.89	0.00
369.09	0.00
369.28	0.00
369.48	0.00
369.68	0.00
369.87	0.00
370.07	0.00
370.27	0.00
370.47	315.97
370.66	2340.54
370.86	2796.94
371.06	2939.71
371.25	2862.48
371.45	2555.86
371.65	2328.83
371.84	2218.83
372.04	2478.63
372.24	2787.58
372.44	2832.05
372.63	2654.17
372.83	2382.67
373.03	2129.89
373.22	2094.78
373.42	2202.44
373.62	2586.29
373.81	2654.17
374.01	2656.51
374.21	2310.11
374.40	2305.43
374.60	2499.69
374.79	2792.26
374.99	3164.40
375.19	3346.97
375.38	3211.22
375.58	3155.04
375.78	3080.14
375.97	3141.00
376.17	3279.09
376.37	3211.22
376.56	3428.88
376.76	3655.92
376.95	3922.74
377.15	4187.22
377.35	4304.25
377.54	4346.37
377.74	4674.05
377.93	4425.95
378.13	4374.46
378.33	4135.73
378.52	3922.74
378.72	3854.86
378.91	3658.26
379.11	3435.91
379.31	3417.18
379.50	3520.17
379.70	3782.31
379.89	4236.37
380.09	4440.00
380.28	4435.32
380.48	4545.32
380.68	4386.16
380.87	4283.18
381.07	3735.50
381.26	3609.11
381.46	3463.99
381.65	3269.73
381.85	3330.58
382.04	3101.21
382.24	2853.11
382.43	2890.56
382.63	2785.24
382.83	2583.95
383.02	2628.42
383.22	2752.47
383.41	2766.51
383.61	3014.61
383.80	3407.82
384.00	3901.67
384.19	4395.53
384.39	4519.57
384.58	4519.57
384.78	4454.04
384.97	4205.94
385.17	4107.64
385.36	3819.75
385.56	3852.52
385.75	4147.43
385.95	4463.40
386.14	4725.54
386.34	4608.51
386.53	4269.14
386.72	4217.65
386.92	4170.83
387.11	4599.15
387.31	4777.03
387.50	4573.41
387.70	4346.37
387.89	4358.08
388.09	4414.25
388.28	4365.10
388.48	4667.03
388.67	4777.03
388.86	5626.65
389.06	5675.80
389.25	6031.56
389.45	6148.59
389.64	6022.20
389.84	5926.24
390.03	5858.36
390.22	5841.98
390.42	6218.80
390.61	6771.17
390.81	6939.69
391.00	7077.78
391.19	7000.54
391.39	6806.28
391.58	6284.34
391.78	6087.73
391.97	5818.57
392.16	5331.74
392.36	4643.62
392.55	3805.71
392.75	2988.86
392.94	2441.18
393.13	2691.62
393.33	3279.09
393.52	4133.39
393.71	4922.15
393.91	5448.77
394.10	6010.50
394.29	6717.34
394.49	7218.21
394.68	7833.77
394.88	7611.42
395.07	7803.35
395.26	7796.32
395.46	7335.24
395.65	6895.22
395.84	5933.26
396.04	5041.51
396.23	3889.97
396.42	3473.36
396.62	3597.40
396.81	4234.03
397.00	5530.69
397.19	6853.09
397.39	7967.18
397.58	8739.56
397.77	9242.78
397.97	9605.56
398.16	9687.48
398.35	10012.81
398.55	10094.73
398.74	10670.50
398.93	10721.99
399.12	10883.49
399.32	10303.04
399.51	10822.64
399.70	11241.59
399.90	10937.32
400.09	11033.29
400.28	10977.11
400.47	11274.36
400.67	11698.00
400.86	11859.49
401.05	12156.74
401.24	11997.59
401.44	12250.36
401.63	12505.48
401.82	12177.81
402.01	12231.64
402.21	12538.25
402.40	12437.61
402.59	12088.87
402.78	11246.27
402.97	11440.54
403.17	11995.25
403.36	12650.60
403.55	12996.99
403.74	13022.74
403.93	12231.64
404.13	11232.23
404.32	11304.79
404.51	11978.86
404.70	12559.31
404.89	12662.30
405.09	12437.61
405.28	12231.64
405.47	12451.65
405.66	12229.30
405.85	12086.53
406.05	11854.81
406.24	12264.41
406.43	12446.97
406.62	12716.13
406.81	12713.79
407.00	12781.67
407.20	12077.16
407.39	12046.74
407.58	12940.82
407.77	13310.63
407.96	13771.71
408.15	13867.67
408.34	14061.94
408.54	14661.12
408.73	14576.86
408.92	14370.89
409.11	13682.77
409.30	13144.45
409.49	12381.43
409.68	11599.70
409.87	11515.44
410.07	12367.39
410.26	13102.32
410.45	13865.33
410.64	14066.62
410.83	15000.49
411.02	15213.48
411.21	15929.69
411.40	15442.85
411.59	15658.18
411.78	15410.09
411.98	15297.74
412.17	15480.30
412.36	15435.83
412.55	15037.94
412.74	15005.17
412.93	14707.93
413.12	15131.56
413.31	16662.27
413.50	16463.33
413.69	16453.97
413.88	15686.27
414.07	15634.78
414.26	15978.84
414.45	16453.97
414.64	15836.06
414.83	16166.08
415.02	15981.18
415.22	16126.29
415.41	16669.30
415.60	17280.18
415.79	17879.35
415.98	18302.99
416.17	17984.68
416.36	17633.60
416.55	17268.47
416.74	16425.88
416.93	16320.56
417.12	16435.24
417.31	16690.36
417.50	17102.29
417.69	17408.90
417.88	17263.79
418.07	16971.22
418.26	17025.06
418.45	17401.88
418.64	18197.67
418.83	19077.71
419.02	18352.14
419.21	17614.87
419.39	17282.52
419.58	16355.66
419.77	16751.21
419.96	17898.08
420.15	18490.23
420.34	18897.49
420.53	19634.75
420.72	19536.45
420.91	19351.55
421.10	19300.06
421.29	19145.58
421.48	18284.26
421.67	19604.33
421.86	18466.83
422.05	17165.49
422.24	15831.38
422.43	16240.98
422.61	17926.16
422.80	18799.18
422.99	18370.86
423.18	18090.00
423.37	18061.91
423.56	18012.76
423.75	18677.48
423.94	19101.11
424.13	17706.15
424.32	17488.48
424.50	17743.60
424.69	17862.97
424.88	18054.89
425.07	17633.60
425.26	17989.36
425.45	17242.73
425.64	16940.80
425.83	17310.60
426.01	18436.40
426.20	18593.22
426.39	18380.23
426.58	16606.10
426.77	15513.07
426.96	15573.92
427.15	16224.59
427.33	17745.94
427.52	17928.50
427.71	18197.67
427.90	17989.36
428.09	17476.78
428.28	17209.96
428.46	16327.58
428.65	16081.82
428.84	17277.83
429.03	16973.56
429.22	16152.04
429.40	14888.15
429.59	13596.17
429.78	12219.94
429.97	12685.70
430.16	12475.06
430.34	12435.27
430.53	12655.28
430.72	13319.99
430.91	14846.02
431.10	17647.64
431.28	20208.19
431.47	21722.51
431.66	20798.00
431.85	18712.58
432.03	17802.11
432.22	17757.64
432.41	18728.97
432.60	20341.60
432.79	20968.86
432.97	21200.57
433.16	20334.57
433.35	18625.98
433.54	16620.14
433.72	16425.88
433.91	17334.01
434.10	18939.62
434.28	20042.01
434.47	20776.94
434.66	20144.99
434.85	19906.26
435.03	20432.88
435.22	20622.46
435.41	21509.52
435.59	22270.20
435.78	22064.23
435.97	22707.88
436.16	22611.92
436.34	22129.77
436.53	22064.23
436.72	22010.40
436.90	20893.96
437.09	20821.41
437.28	20718.42
437.46	21427.60
437.65	20844.81
437.84	18848.33
438.02	18237.45
438.21	18300.65
438.40	18993.45
438.58	20428.20
438.77	21415.90
438.96	21998.70
439.14	22511.27
439.33	22518.29
439.52	22824.90
439.70	22373.18
439.89	21635.91
440.08	21120.99
440.26	21912.10
440.45	22452.76
440.63	24208.16
440.82	24692.65
441.01	24332.21
441.19	24491.37
441.38	24957.13
441.57	25881.64
441.75	25797.38
441.94	26141.44
442.12	25436.94
442.31	26827.22
442.50	26061.87
442.68	25645.25
442.87	25696.74
443.05	24985.22
443.24	26066.55
443.43	26684.45
443.61	26742.96
443.80	26948.93
443.98	26178.89
444.17	26352.09
444.35	27339.80
444.54	27318.73
444.73	26792.11
444.91	25469.71
445.10	25039.05
445.28	24444.56
445.47	23775.16
445.65	23735.37
445.84	24800.32
446.02	24952.45
446.21	25750.57
446.39	26068.89
446.58	25935.48
446.77	26799.13
446.95	27316.39
447.14	27990.47
447.32	28666.88
447.51	27585.55
447.69	26639.98
447.88	26639.98
448.06	27070.64
448.25	27843.01
448.43	27063.61
448.62	26876.37
448.80	26958.29
448.99	27274.26
449.17	26998.08
449.36	27688.54
449.54	28481.98
449.73	29022.64
449.91	28638.80
450.10	29570.33
450.28	29694.38
450.46	30256.11
450.65	29696.72
450.83	29385.43
451.02	29247.33
451.20	28893.91
451.39	28968.81
451.57	28790.93
451.76	29179.46
451.94	28311.12
452.13	27648.75
452.31	26408.26
452.49	25188.85
452.68	26298.26
452.86	26462.10
453.05	26576.78
453.23	27594.92
453.42	28088.77
453.60	28858.81
453.78	28580.28
453.97	28584.96
454.15	28435.17
454.34	27318.73
454.52	27398.31
454.70	27009.78
454.89	27843.01
455.07	27857.06
455.26	28638.80
455.44	29364.36
455.62	29528.20
455.81	29652.25
455.99	29778.64
456.17	29638.20
456.36	30052.48
456.54	30143.76
456.73	30394.20
456.91	30785.07
457.09	30920.82
457.28	31592.55
457.46	29921.41
457.64	29933.11
457.83	29144.35
458.01	29090.52
458.19	29654.59
458.38	29982.26
458.56	30958.27
458.74	30347.39
458.93	29682.67
459.11	29298.83
459.29	29818.42
459.48	29879.28
459.66	29188.82
459.84	29818.42
460.03	29848.85
460.21	30522.93
460.39	30953.58
460.57	31014.44
460.76	31417.01
460.94	31115.08
461.12	31445.10
461.31	31445.10
461.49	31587.87
461.67	31250.83
461.85	32421.10
462.04	31962.36
462.22	31847.67
462.40	31922.57
462.59	31819.58
462.77	32231.52
462.95	31725.96
463.13	31541.06
463.32	30962.95
463.50	31199.34
463.68	31035.50
463.86	31178.28
464.05	30150.78
464.23	29996.31
464.41	29710.76
464.59	29631.18
464.78	31189.98
464.96	30441.01
465.14	29600.76
465.32	31587.87
465.50	32240.88
465.69	33427.53
465.87	31962.36
466.05	31054.23
466.23	29591.39
466.41	29142.01
466.60	30120.35
466.78	29596.07
466.96	29654.59
467.14	30829.54
467.32	30934.86
467.51	30904.43
467.69	29266.06
467.87	30363.77
468.05	31173.60
468.23	30824.86
468.41	31236.79
468.60	31538.72
468.78	31007.42
468.96	31391.26
469.14	32194.07
469.32	31828.95
469.50	30321.64
469.69	30464.41
469.87	30251.42
470.05	29612.46
470.23	30078.22
470.41	30221.00
470.59	30696.13
470.77	30277.17
470.95	31070.61
471.14	32299.39
471.32	32081.72
471.50	34010.32
471.68	33727.12
471.86	34225.65
472.04	33876.91
472.22	34036.07
472.40	32130.87
472.58	32121.51
472.77	32229.18
472.95	32844.74
473.13	33783.29
473.31	32488.98
473.49	33034.32
473.67	33195.82
473.85	34253.74
474.03	35108.04
474.21	35337.41
474.39	35173.57
474.57	35227.40
474.75	35697.85
474.93	34873.98
475.12	33418.17
475.30	34232.68
475.48	33795.00
475.66	34962.92
475.84	33776.27
476.02	34600.14
476.20	33376.04
476.38	34377.79
476.56	35019.10
476.74	35662.74
476.92	36285.33
477.10	36273.62
477.28	37504.74
477.46	37537.51
477.64	37551.56
477.82	38195.20
478.00	37729.44
478.18	37446.23
478.36	37221.54
478.54	37453.25
478.72	38218.61
478.90	39363.13
479.08	40947.67
479.26	40205.72
479.44	40706.60
479.62	40311.05
479.80	40297.00
479.98	40226.79
480.16	40547.44
480.34	39922.52
480.52	40844.69
480.70	40165.93
480.88	39861.66
481.06	41413.44
481.24	41530.47
481.41	42808.40
481.59	43566.73
481.77	42227.95
481.95	41979.85
482.13	42380.08
482.31	42880.95
482.49	43407.58
482.67	42721.80
482.85	42581.37
483.03	43049.47
483.21	44161.23
483.39	44467.84
483.57	43627.59
483.74	43564.39
483.92	42976.92
484.10	43063.52
484.28	44006.75
484.46	43936.54
484.64	44989.78
484.82	44135.48
485.00	43826.53
485.18	43009.68
485.35	41488.34
485.53	36739.39
485.71	33539.88
485.89	34691.42
486.07	37893.27
486.25	39798.47
486.43	42017.30
486.61	42838.83
486.78	42120.28
486.96	43700.14
487.14	44832.96
487.32	46120.26
487.50	46824.76
487.68	47100.94
487.85	48287.59
488.03	47894.38
488.21	46677.30
488.39	46934.76
488.57	44989.78
488.75	45221.49
488.92	47122.01
489.10	49638.08
489.28	49696.59
489.46	51887.34
489.64	50724.09
489.81	51332.63
489.99	51133.68
490.17	50740.47
490.35	51604.13
490.53	50923.04
490.70	50784.94
490.88	50700.68
491.06	51863.93
491.24	52196.29
491.41	50492.38
491.59	48811.87
491.77	48177.59
491.95	49741.06
492.13	51480.08
492.30	52105.01
492.48	53261.23
492.66	53209.74
492.84	52474.81
493.01	52435.02
493.19	52360.12
493.37	52004.36
493.54	52100.32
493.72	53102.07
493.90	53860.41
494.08	54562.57
494.25	54789.60
494.43	55206.22
494.61	55543.25
494.79	54745.13
494.96	55021.31
495.14	55007.27
495.32	53104.41
495.49	53544.44
495.67	54380.01
495.85	55451.97
496.02	56116.68
496.20	55302.18
496.38	54766.20
496.55	55096.21
496.73	55608.79
496.91	56009.02
497.09	56065.19
497.26	57043.54
497.44	55634.53
497.62	54831.73
497.79	54401.07
497.97	53066.97
498.14	54246.60
498.32	55096.21
498.50	55341.97
498.67	55545.59
498.85	55334.95
499.03	56257.12
499.20	56257.12
499.38	55650.92
499.56	54724.07
499.73	54780.24
499.91	55033.02
500.08	54342.56
500.26	54007.86
500.44	54581.29
500.61	55487.08
500.79	55194.51
500.97	54878.54
501.14	54178.72
501.32	53315.06
501.49	53808.92
501.67	54667.89
501.84	55086.85
502.02	55360.69
502.20	55664.96
502.37	55828.80
502.55	56254.78
502.72	57020.13
502.90	57298.65
503.07	56776.72
503.25	55842.84
503.43	54904.29
503.60	54562.57
503.78	54429.16
503.95	55281.11
504.13	56135.41
504.30	56975.66
504.48	56430.32
504.65	56435.00
504.83	56135.41
505.01	57406.32
505.18	57326.74
505.36	58066.35
505.53	57989.11
505.71	57612.29
505.88	58092.10
506.06	57677.82
506.23	57247.16
506.41	56767.35
506.58	57144.18
506.76	57167.58
506.93	56580.11
507.11	56542.66
507.28	56753.31
507.46	56048.81
507.63	56048.81
507.81	55962.21
507.98	55931.78
508.16	57296.31
508.33	57427.38
508.50	57586.54
508.68	57865.06
508.85	58197.42
509.03	58592.97
509.20	58382.32
509.38	57371.21
509.55	57584.20
509.73	56942.89
509.90	57286.95
510.08	57364.19
510.25	56872.68
510.42	56713.52
510.60	57003.75
510.77	57888.47
510.95	58042.95
511.12	58239.55
511.30	58915.96
511.47	59007.25
511.64	58866.81
511.82	58604.67
511.99	57308.02
512.17	57350.15
512.34	56959.28
512.51	57354.83
512.69	57745.70
512.86	56975.66
513.04	57406.32
513.21	57120.77
513.38	56275.84
513.56	56081.58
513.73	55561.98
513.90	57158.22
514.08	56603.52
514.25	56582.45
514.43	56830.55
514.60	56996.73
514.77	57333.76
514.95	57518.67
515.12	57415.68
515.29	58052.31
515.47	58213.80
515.64	58220.83
515.81	57752.72
515.99	56739.27
516.16	54768.54
516.33	52430.34
516.51	52261.82
516.68	50831.75
516.85	49813.62
517.03	51498.81
517.20	54372.99
517.37	56640.96
517.54	57425.04
517.72	56385.85
517.89	53169.95
518.06	51650.94
518.24	52746.31
518.41	54944.08
518.58	56313.29
518.75	56271.16
518.93	56172.86
519.10	55753.90
519.27	56842.25
519.45	57022.47
519.62	57965.71
519.79	57951.66
519.96	57326.74
520.14	57495.26
520.31	56287.54
520.48	56332.01
520.65	57120.77
520.83	58403.39
521.00	57755.06
521.17	57041.20
521.34	57790.17
521.52	58361.26
521.69	58667.87
521.86	59079.80
522.03	58108.48
522.20	56666.71
522.38	55931.78
522.55	56114.34
522.72	56219.67
522.89	56540.32
523.07	57513.98
523.24	57893.15
523.41	58272.32
523.58	58728.72
523.75	58944.05
523.92	59140.66
524.10	58754.47
524.27	58042.95
524.44	57497.60
524.61	57195.67
524.78	57846.34
524.96	58052.31
525.13	58010.18
525.30	58637.44
525.47	58897.24
525.64	58843.41
525.81	57490.58
525.98	56086.26
526.16	54323.83
526.33	54417.46
526.50	53851.05
526.67	54363.62
526.84	55192.17
527.01	56116.68
527.18	56610.54
527.36	57223.76
527.53	58159.97
527.70	57677.82
527.87	56381.16
528.04	57172.27
528.21	57631.01
528.38	58340.19
528.55	59522.16
528.72	59271.73
528.89	58761.49
529.07	58770.85
529.24	57558.45
529.41	57228.44
529.58	57130.14
529.75	58012.52
529.92	58485.31
530.09	58323.81
530.26	58707.66
530.43	59395.77
530.60	58944.05
530.77	59114.91
530.94	59442.59
531.11	58667.87
531.28	58475.94
531.46	58445.52
531.63	58248.91
531.80	58059.33
531.97	57612.29
532.14	57607.61
532.31	56350.74
532.48	55571.34
532.65	55718.79
532.82	56460.74
532.99	58328.49
533.16	58492.33
533.33	58394.03
533.50	58511.05
533.67	57855.70
533.84	57909.53
534.01	57900.17
534.18	58049.97
534.35	57780.81
534.52	57380.57
534.69	57579.52
534.86	58417.43
535.03	58761.49
535.20	59292.79
535.37	59678.98
535.54	59615.79
535.71	58904.26
535.88	58848.09
536.05	58061.67
536.22	57006.09
536.38	57361.85
536.55	56905.44
536.72	56343.72
536.89	57207.37
537.06	57378.23
537.23	57605.26
537.40	57303.34
537.57	57460.15
537.74	57460.15
537.91	57612.29
538.08	57450.79
538.25	57963.37
538.42	58632.76
538.59	57769.10
538.75	57308.02
538.92	56545.00
539.09	56781.40
539.26	56739.27
539.43	57036.51
539.60	56388.19
539.77	57207.37
539.94	56624.58
540.11	56226.69
540.28	55781.99
540.44	55723.47
540.61	55700.07
540.78	56212.65
540.95	56584.79
541.12	56673.73
541.29	57202.69
541.46	57069.28
541.62	57422.70
541.79	56425.64
541.96	56254.78
542.13	56956.94
542.30	56886.72
542.47	56931.19
542.63	56905.44
542.80	56631.60
542.97	55732.84
543.14	56364.78
543.31	57015.45
543.48	57387.60
543.64	58061.67
543.81	58157.63
543.98	58272.32
544.15	57251.84
544.32	57495.26
544.48	57120.77
544.65	56802.46
544.82	57600.58
544.99	56512.23
545.16	56144.77
545.32	56591.81
545.49	57212.06
545.66	57619.31
545.83	57298.65
546.00	57598.24
546.16	56734.59
546.33	56409.25
546.50	56453.72
546.67	57352.49
546.83	57083.33
547.00	56999.07
547.17	55679.00
547.34	55021.31
547.50	55011.95
547.67	55936.46
547.84	56765.01
548.00	57198.01
548.17	57010.77
548.34	57179.29
548.51	57198.01
548.67	56788.42
548.84	56823.53
549.01	57242.48
549.18	56495.85
549.34	56622.24
549.51	57279.93
549.68	57687.18
549.84	56624.58
550.01	55744.54
550.18	56172.86
550.34	56168.18
550.51	56453.72
550.68	56727.56
550.84	56954.60
551.01	56137.75
551.18	56285.20
551.34	55985.61
551.51	56816.50
551.68	57097.37
551.84	57385.25
552.01	56612.88
552.18	56526.28
552.34	55599.43
552.51	55150.04
552.68	55157.06
552.84	55845.18
553.01	55718.79
553.18	55856.88
553.34	55838.16
553.51	55906.04
553.67	56446.70
553.84	56603.52
554.01	56999.07
554.17	56413.93
554.34	56121.37
554.51	56294.56
554.67	55622.83
554.84	55718.79
555.00	55217.92
555.17	56013.70
555.33	55730.50
555.50	55159.41
555.67	55552.62
555.83	55657.94
556.00	55208.56
556.16	54775.56
556.33	54864.50
556.50	55377.08
556.66	55136.00
556.83	54829.39
556.99	54344.90
557.16	54944.08
557.32	54611.72
557.49	55458.99
557.65	55110.25
557.82	55632.19
557.98	55798.37
558.15	54623.42
558.32	54131.91
558.48	53406.34
558.65	53020.16
558.81	53549.12
558.98	54576.61
559.14	54307.45
559.31	54536.82
559.47	53963.39
559.64	54183.40
559.80	53432.09
559.97	54021.90
560.13	54431.50
560.30	55870.93
560.46	56030.08
560.63	56329.67
560.79	56278.18
560.96	55253.03
561.12	54176.38
561.29	54649.17
561.45	54464.27
561.61	55126.64
561.78	54305.11
561.94	54452.56
562.11	54024.25
562.27	53609.97
562.44	55070.46
562.60	54822.37
562.77	55227.28
562.93	54876.20
563.10	54866.84
563.26	54817.69
563.42	54794.28
563.59	54703.00
563.75	54501.71
563.92	53811.26
564.08	54110.85
564.24	55194.51
564.41	53977.43
564.57	54993.23
564.74	54536.82
564.90	53993.82
565.07	53432.09
565.23	52882.06
565.39	52191.61
565.56	52343.74
565.72	53450.81
565.88	52317.99
566.05	54246.60
566.21	53598.27
566.38	53705.93
566.54	54621.08
566.70	54824.71
566.87	54518.10
567.03	54707.68
567.19	55742.20
567.36	55569.00
567.52	54049.99
567.68	53755.08
567.85	52896.11
568.01	53097.39
568.17	53052.92
568.34	53289.32
568.50	52605.88
568.66	52278.21
568.83	52481.83
568.99	52067.56
569.15	52287.57
569.32	52378.85
569.48	52254.80
569.64	52385.87
569.81	52381.19
569.97	51929.47
570.13	51433.27
570.30	50621.11
570.46	50220.87
570.62	49666.17
570.78	50658.56
570.95	50578.98
571.11	51562.00
571.27	50986.23
571.43	51819.46
571.60	51725.84
571.76	52018.41
571.92	52355.44
572.09	52711.20
572.25	52182.24
572.41	52055.85
572.57	52369.49
572.74	53099.73
572.90	53567.84
573.06	53619.33
573.22	53591.25
573.38	53263.57
573.55	54085.10
573.71	52971.00
573.87	52236.08
574.03	52673.76
574.20	51751.59
574.36	51522.21
574.52	51559.66
574.68	51281.14
574.84	50534.51
575.01	50358.97
575.17	50148.32
575.33	51023.68
575.49	51262.41
575.65	50101.51
575.82	50539.19
575.98	51533.92
576.14	51810.10
576.30	52275.87
576.46	51510.51
576.62	50763.88
576.79	51129.00
576.95	51522.21
577.11	51758.61
577.27	50745.15
577.43	51311.56
577.59	50923.04
577.75	50424.50
577.92	49808.94
578.08	50244.28
578.24	50117.89
578.40	49996.18
578.56	49130.19
578.72	49448.50
578.88	49799.58
579.04	50110.87
579.21	49481.27
579.37	49319.77
579.53	50293.43
579.69	49373.60
579.85	49317.43
580.01	49364.24
580.17	49380.62
580.33	50784.94
580.49	50761.54
580.65	50073.42
580.82	50586.00
580.98	50506.42
581.14	49993.84
581.30	49469.56
581.46	49382.96
581.62	50447.91
581.78	50951.12
581.94	51117.30
582.10	51131.34
582.26	50951.12
582.42	50899.63
582.58	49911.92
582.74	49584.25
582.90	49748.09
583.06	50939.42
583.22	50569.61
583.38	50712.39
583.54	50901.97
583.70	50258.32
583.86	50777.92
584.02	49116.14
584.18	49666.17
584.34	49083.37
584.50	49059.97
584.66	49261.26
584.82	48856.34
584.98	49324.45
585.14	48289.93
585.30	48119.07
585.46	46483.04
585.62	47512.88
585.78	47978.64
585.94	47723.52
586.10	47770.33
586.26	46944.12
586.42	48133.12
586.58	48303.98
586.74	48877.41
586.90	49357.22
587.06	48802.51
587.22	49972.78
587.38	49855.75
587.54	48240.78
587.70	47374.78
587.86	48196.31
588.02	48507.60
588.18	47302.23
588.34	45137.23
588.49	43508.22
588.65	41422.80
588.81	41647.49
588.97	40416.37
589.13	40423.39
589.29	42267.73
589.45	42726.48
589.61	43491.83
589.77	46103.87
589.93	47702.46
590.08	47192.22
590.24	47744.59
590.40	47019.02
590.56	46614.11
590.72	45958.76
590.88	45656.83
591.04	46438.57
591.20	45310.43
591.35	45860.46
591.51	45106.80
591.67	44676.15
591.83	44697.21
591.99	46033.66
592.15	46429.21
592.31	46286.43
592.46	46216.22
592.62	47255.42
592.78	46710.07
592.94	45565.55
593.10	45092.76
593.26	47051.79
593.41	46185.79
593.57	46384.74
593.73	45710.66
593.89	44762.75
594.05	44559.12
594.20	44580.18
594.36	43077.56
594.52	44170.59
594.68	43971.64
594.84	44706.57
594.99	46770.93
595.15	45937.69
595.31	45928.33
595.47	45689.60
595.62	47098.60
595.78	45464.91
595.94	44828.28
596.10	44318.04
596.25	45291.71
596.41	44636.36
596.57	43608.86
596.73	44416.35
596.88	43686.10
597.04	45495.33
597.20	44996.80
597.36	44116.76
597.51	45853.44
597.67	44142.50
597.83	44074.63
597.99	44584.86
598.14	43433.32
598.30	43288.21
598.46	43405.23
598.61	44484.22
598.77	43639.29
598.93	43290.55
599.09	43552.69
599.24	43835.89
599.40	43868.66
599.56	45160.64
599.71	45219.15
599.87	45448.52
600.03	44161.23
600.18	43856.96
600.34	42752.23
600.50	44467.84
600.65	43969.30
600.81	43962.28
600.97	42696.05
601.12	43585.46
601.28	44463.16
601.44	42979.26
601.59	43966.96
601.75	43225.01
601.91	43562.05
602.06	42696.05
602.22	42593.07
602.37	43814.83
602.53	44460.82
602.69	43199.27
602.84	43143.09
603.00	43959.94
603.16	44339.11
603.31	44470.18
603.47	43992.71
603.62	44624.65
603.78	44907.86
603.94	44418.69
604.09	44474.86
604.25	42845.85
604.40	43173.52
604.56	42564.98
604.71	42852.87
604.87	42012.62
605.03	41947.08
605.18	41357.27
605.34	42452.64
605.49	41958.78
605.65	42452.64
605.80	42071.13
605.96	41944.74
606.12	42653.92
606.27	42316.89
606.43	39889.75
606.58	40259.55
606.74	40306.37
606.89	40549.78
607.05	41273.01
607.20	41546.85
607.36	40994.48
607.51	40715.96
607.67	41539.83
607.82	40980.44
607.98	40795.54
608.13	39758.68
608.29	40765.11
608.44	40814.26
608.60	40172.96
608.75	41099.81
608.91	41322.16
609.06	40353.18
609.22	40708.94
609.37	40584.89
609.53	41490.68
609.68	39407.60
609.84	38447.98
609.99	39112.69
610.15	39522.29
610.30	40502.97
610.46	41715.37
610.61	40191.68
610.76	39997.41
610.92	38951.20
611.07	40554.46
611.23	41682.60
611.38	43145.44
611.54	42864.57
611.69	41640.47
611.84	39936.56
612.00	39604.20
612.15	39321.00
612.31	39662.72
612.46	39093.97
612.62	38190.52
612.77	37848.80
612.92	38857.57
613.08	38895.02
613.23	39604.20
613.39	39370.15
613.54	38883.32
613.69	37841.78
613.85	37928.38
614.00	38389.47
614.15	38988.64
614.31	38579.05
614.46	38532.24
614.62	39833.58
614.77	39653.36
614.92	38965.24
615.08	38747.57
615.23	37977.53
615.38	37919.02
615.54	38227.97
615.69	37266.01
615.84	36622.36
616.00	36973.44
616.15	37434.53
616.30	36861.10
616.46	37256.65
616.61	37516.45
616.76	38218.61
616.92	37457.93
617.07	38038.39
617.22	37034.30
617.37	36622.36
617.53	37310.48
617.68	37418.14
617.83	36760.45
617.99	38211.59
618.14	38157.75
618.29	38101.58
618.45	36273.62
618.60	36194.04
618.75	35526.99
618.90	36219.79
619.06	37242.60
619.21	38550.96
619.36	37518.79
619.51	38022.00
619.67	39658.04
619.82	40105.08
619.97	39913.16
620.12	37965.83
620.28	37090.47
620.43	37886.25
620.58	37649.86
620.73	38000.94
620.89	37237.92
621.04	35646.36
621.19	35868.71
621.34	34871.64
621.49	36067.66
621.65	36055.95
621.80	36444.48
621.95	36329.80
622.10	35463.80
622.25	35962.33
622.41	33614.77
622.56	33809.04
622.71	34649.29
622.86	35435.71
623.01	35896.80
623.16	35218.04
623.32	34869.30
623.47	35519.97
623.62	34321.62
623.77	34319.28
623.92	33647.54
624.07	33376.04
624.23	32545.15
624.38	33724.78
624.53	33851.17
624.68	33855.85
624.83	32992.19
624.98	33516.47
625.13	32442.17
625.29	32617.71
625.44	33668.61
625.59	33490.73
625.74	34106.29
625.89	33053.05
626.04	33469.66
626.19	34616.52
626.34	34211.61
626.49	33841.81
626.65	33448.60
626.80	33364.34
626.95	32877.51
627.10	31803.20
627.25	31714.26
627.40	31466.16
627.55	31508.29
627.70	30288.87
627.85	30906.77
628.00	30764.00
628.15	31157.21
628.30	31360.84
628.45	31627.66
628.60	30937.20
628.76	30232.70
628.91	30120.35
629.06	30658.68
629.21	30878.69
629.36	32229.18
629.51	30845.92
629.66	29275.42
629.81	29411.17
629.96	30302.92
630.11	30771.02
630.26	31538.72
630.41	32547.49
630.56	32339.18
630.71	31391.26
630.86	31393.61
631.01	29912.05
631.16	29706.08
631.31	29853.53
631.46	30314.62
631.61	29544.58
631.76	30190.57
631.91	31208.70
632.06	31489.57
632.21	32275.99
632.36	33078.79
632.51	32311.10
632.66	32514.72
632.81	31454.46
632.96	32385.99
633.10	31377.22
633.25	30686.76
633.40	29284.78
633.55	30277.17
633.70	30955.93
633.85	29916.73
634.00	29834.81
634.15	30225.68
634.30	30543.99
634.45	30761.66
634.60	30059.50
634.75	29881.62
634.90	29923.75
635.05	30810.81
635.19	30483.14
635.34	30398.88
635.49	29984.60
635.64	30321.64
635.79	31606.59
635.94	30831.88
636.09	30967.63
636.24	30239.72
636.39	30026.73
636.53	29544.58
636.68	29455.64
636.83	29310.53
636.98	29752.89
637.13	29401.81
637.28	29436.92
637.43	30045.46
637.57	30469.09
637.72	30438.67
637.87	30623.57
638.02	30036.09
638.17	31316.37
638.32	31349.14
638.46	30155.46
638.61	28802.63
638.76	28905.62
638.91	29401.81
639.06	30019.71
639.20	28896.25
639.35	28161.33
639.50	28025.57
639.65	28362.61
639.80	27648.75
639.94	28112.17
640.09	29240.31
640.24	28072.39
640.39	27154.90
640.54	27386.61
640.68	28154.30
640.83	28505.38
640.98	29191.16
641.13	28147.28
641.27	28882.21
641.42	27089.36
641.57	27087.02
641.72	27714.28
641.86	27854.72
642.01	28666.88
642.16	28662.20
642.31	28521.77
642.45	28900.94
642.60	28154.30
642.75	27718.96
642.90	27770.46
643.04	28166.01
643.19	27866.42
643.34	27929.61
643.48	27646.41
643.63	28687.95
643.78	26787.43
643.93	26813.18
644.07	27278.94
644.22	27625.34
644.37	27290.65
644.51	27140.85
644.66	28238.56
644.81	27007.44
644.95	28102.81
645.10	28247.93
645.25	26775.73
645.39	27211.07
645.54	26202.30
645.69	25607.80
645.83	25799.73
645.98	24542.86
646.13	24776.91
646.27	23983.47
646.42	24439.87
646.57	24517.11
646.71	24776.91
646.86	25172.46
647.00	24933.73
647.15	25057.78
647.30	25053.09
647.44	25900.37
647.59	25355.02
647.74	25235.66
647.88	25284.81
648.03	24907.98
648.17	25661.63
648.32	26586.15
648.47	27360.86
648.61	26749.98
648.76	26352.09
648.90	26139.10
649.05	26022.08
649.20	24084.11
649.34	22780.43
649.49	23084.70
649.63	24643.50
649.78	25135.01
649.92	25394.81
650.07	24367.32
650.21	24161.35
650.36	25771.64
650.51	25465.03
650.65	25017.99
650.80	24348.59
650.94	24659.88
651.09	24561.58
651.23	23304.71
651.38	23889.85
651.52	24599.03
651.67	24400.08
651.81	24428.17
651.96	24718.40
652.10	26352.09
652.25	25259.06
652.39	25507.16
652.54	24526.47
652.68	24276.04
652.83	23637.07
652.97	23344.50
653.12	23293.01
653.26	24257.31
653.41	24367.32
653.55	24449.24
653.70	23946.02
653.84	23969.43
653.99	24676.27
654.13	24325.19
654.27	23992.83
654.42	22965.34
654.56	21954.22
654.71	22410.63
654.85	23328.12
655.00	23660.48
655.14	23241.52
655.29	22242.11
655.43	21125.68
655.57	19920.30
655.72	17968.29
655.86	17039.10
656.01	17076.55
656.15	17977.65
656.30	19328.14
656.44	19976.47
656.58	20004.56
656.73	21736.56
656.87	22251.47
657.01	21748.26
657.16	22267.86
657.30	22778.09
657.45	22817.88
657.59	21944.86
657.73	22129.77
657.88	21528.25
658.02	22167.21
658.16	22515.95
658.31	22618.94
658.45	21860.60
658.60	21846.56
658.74	21888.69
658.88	22567.45
659.03	21495.48
659.17	21647.61
659.31	21291.85
659.46	21048.44
659.60	21858.26
659.74	21802.09
659.89	22141.47
660.03	22838.95
660.17	21790.39
660.32	22148.49
660.46	22001.04
660.60	22508.93
660.74	23058.96
660.89	22644.68
661.03	21064.82
661.17	22108.70
661.32	22017.42
661.46	22375.52
661.60	21762.30
661.74	21867.63
661.89	22342.75
662.03	21738.90
662.17	21755.28
662.31	22228.07
662.46	22174.24
662.60	22286.58
662.74	21399.52
662.88	21549.31
663.03	22059.55
663.17	21673.36
663.31	20805.02
663.45	21509.52
663.60	21333.98
663.74	20343.94
663.88	21013.33
664.02	20844.81
664.17	20767.57
664.31	19875.83
664.45	20812.04
664.59	20425.86
664.73	20788.64
664.88	19962.43
665.02	19627.73
665.16	20421.17
665.30	20683.31
665.44	21345.69
665.59	22080.61
665.73	21502.50
665.87	20540.54
666.01	19948.39
666.15	19868.81
666.29	19363.25
666.44	19627.73
666.58	19707.31
666.72	20524.16
666.86	20828.43
667.00	21341.00
667.14	21720.17
667.28	20229.25
667.43	20301.81
667.57	19997.54
667.71	20198.82
667.85	19871.15
667.99	19159.63
668.13	19286.01
668.27	19239.20
668.41	19042.60
668.56	20505.43
668.70	20706.72
668.84	20547.56
668.98	20533.52
669.12	20245.63
669.26	19564.54
669.40	19927.32
669.54	19290.70
669.68	19454.53
669.82	18712.58
669.96	19735.40
670.10	20411.81
670.25	20360.32
670.39	19777.53
670.53	19953.07
670.67	19016.85
670.81	18640.03
670.95	18417.68
671.09	18008.08
671.23	18469.17
671.37	18487.89
671.51	18787.48
671.65	18738.33
671.79	18504.28
671.93	18801.52
672.07	18665.77
672.21	18387.25
672.35	18087.66
672.49	18026.81
672.63	18125.11
672.77	18373.21
672.91	18003.40
673.05	18279.58
673.19	17706.15
673.33	17771.69
673.47	18998.13
673.61	18441.08
673.75	18237.45
673.89	17462.74
674.03	17394.86
674.17	16933.78
674.31	17027.40
674.45	17734.24
674.59	17671.04
674.73	17649.98
674.87	17284.86
675.01	16802.71
675.15	16896.33
675.29	17359.75
675.43	17139.74
675.56	17448.69
675.70	17170.17
675.84	16769.94
675.98	16798.02
676.12	16753.55
676.26	17191.23
676.40	16297.15
676.54	16650.57
676.68	16393.11
676.82	16016.29
676.96	16746.53
677.10	16563.97
677.23	17355.07
677.37	17198.26
677.51	17165.49
677.65	16287.79
677.79	14967.73
677.93	14516.00
678.07	14508.98
678.21	15445.20
678.34	15903.94
678.48	15826.70
678.62	15335.19
678.76	15875.85
678.90	15779.89
679.04	15932.03
679.18	15606.69
679.31	15625.42
679.45	15171.35
679.59	15389.02
679.73	15314.13
679.87	15473.28
680.00	15889.90
680.14	14841.34
680.28	15323.49
680.42	14881.13
680.56	14677.50
680.70	14839.00
680.83	14558.13
680.97	14581.54
681.11	15021.56
681.25	14483.24
681.39	14270.25
681.52	14239.82
681.66	14349.82
681.80	14054.92
681.94	13987.04
682.07	14384.93
682.21	14246.84
682.35	14445.79
682.49	14043.21
682.62	14586.22
682.76	14689.20
682.90	13532.98
683.04	13394.89
683.17	13296.58
683.31	13036.78
683.45	13125.72
683.59	13429.99
683.72	13132.75
683.86	12959.55
684.00	12526.55
684.13	12510.16
684.27	12056.10
684.41	12994.65
684.55	13268.50
684.68	13472.12
684.82	13249.77
684.96	13099.98
685.09	13146.79
685.23	12709.11
685.37	12821.45
685.50	12697.41
685.64	12297.17
685.78	12051.42
685.91	12266.75
686.05	12549.95
686.19	12334.62
686.32	11335.21
686.46	9949.62
686.60	8636.58
686.73	8147.40
686.87	7396.09
687.01	7407.80
687.14	7599.72
687.28	7882.92
687.42	8589.77
687.55	9057.87
687.69	9095.32
687.82	9685.14
687.96	10167.29
688.10	10436.45
688.23	10225.80
688.37	9675.77
688.50	9434.70
688.64	9263.84
688.78	9362.14
688.91	9689.82
689.05	9720.24
689.18	9633.64
689.32	10129.84
689.46	9809.19
689.59	9584.49
689.73	10249.21
689.86	9682.80
690.00	9547.05
690.13	9654.71
690.27	9336.40
690.41	9554.07
690.54	9411.29
690.68	9701.52
690.81	10047.92
690.95	9706.20
691.08	9888.76
691.22	10076.01
691.35	9654.71
691.49	9741.31
691.62	9827.91
691.76	10195.37
691.89	9376.19
692.03	9158.52
692.16	9270.86
692.30	9923.87
692.43	9844.29
692.57	9577.47
692.70	9085.96
692.84	9114.05
692.97	9385.55
693.11	10003.45
693.24	9621.94
693.38	9193.62
693.51	9132.77
693.65	8755.94
693.78	8585.08
693.92	8830.84
694.05	9060.21
694.19	9034.47
694.32	8671.68
694.45	8990.00
694.59	8966.59
694.72	9013.40
694.86	8875.31
694.99	8877.65
695.13	8547.64
695.26	8236.35
695.39	8187.19
695.53	7791.64
695.66	7801.01
695.80	8557.00
695.93	8437.63
696.07	8320.60
696.20	8421.25
696.33	8496.14
696.47	8702.11
696.60	8617.85
696.73	8973.61
696.87	8858.93
697.00	8950.21
697.14	8755.94
697.27	8617.85
697.40	8308.90
697.54	7887.61
697.67	7791.64
697.80	7985.91
697.94	8243.37
698.07	7700.36
698.21	7531.84
698.34	7644.19
698.47	7779.94
698.61	7691.00
698.74	7342.26
698.87	7274.38
699.01	7414.82
699.14	7246.30
699.27	7302.47
699.40	7779.94
699.54	7569.29
699.67	7691.00
699.80	7786.96
699.94	7887.61
700.07	7358.64
700.20	6932.67
700.34	6991.18
700.47	7250.98
700.60	7382.05
700.73	7049.69
700.87	6693.93
701.00	6441.15
701.13	6242.21
701.26	6679.89
701.40	6623.72
701.53	6466.90
701.66	7030.97
701.79	6946.71
701.93	7145.66
702.06	6988.84
702.19	6466.90
702.32	6415.41
702.46	6597.97
702.59	6656.48
702.72	6384.98
702.85	6417.75
702.99	6335.83
703.12	6431.79
703.25	6408.39
703.38	6188.38
703.51	6129.86
703.65	6361.58
703.78	6480.94
703.91	6424.77
704.04	6539.46
704.17	6239.87
704.31	6796.92
704.44	6623.72
704.57	6527.75
704.70	6623.72
704.83	6743.08
704.96	6686.91
705.10	6384.98
705.23	6532.44
>>>>>End Processed Spectral Data<<<<<
