SpectraSuite Data File
++++++++++++++++++++++++++++++++++++
Date: Mon Oct 07 14:53:17 GMT-05:00 2013
User: price-jones
Dark Spectrum Present: No
Reference Spectrum Present: No
Number of Sampled Component Spectra: 1
Spectrometers: USB2+H05261
Integration Time (usec): 100000 (USB2+H05261)
Spectra Averaged: 1 (USB2+H05261)
Boxcar Smoothing: 0 (USB2+H05261)
Correct for Electrical Dark: No (USB2+H05261)
Strobe/Lamp Enabled: No (USB2+H05261)
Correct for Detector Non-linearity: No (USB2+H05261)
Correct for Stray Light: No (USB2+H05261)
Number of Pixels in Processed Spectrum: 2048
>>>>>Begin Processed Spectral Data<<<<<
365.73	0.00
365.92	0.00
366.12	0.00
366.32	0.00
366.52	0.00
366.72	0.00
366.91	0.00
367.11	0.00
367.31	0.00
367.51	0.00
367.70	0.00
367.90	0.00
368.10	0.00
368.30	0.00
368.49	0.00
368.69	0.00
368.89	0.00
369.09	0.00
369.28	0.00
369.48	0.00
369.68	0.00
369.87	0.00
370.07	0.00
370.27	0.00
370.47	1259.21
370.66	5401.96
370.86	6469.24
371.06	6942.03
371.25	6729.04
371.45	6059.65
371.65	5671.12
371.84	5364.51
372.04	5596.22
372.24	6216.46
372.44	6473.92
372.63	6321.79
372.83	5827.93
373.03	5240.46
373.22	4828.53
373.42	5118.75
373.62	6019.86
373.81	6244.55
374.01	6183.70
374.21	5570.48
374.40	5198.33
374.60	5626.65
374.79	6410.73
374.99	7260.34
375.19	7674.62
375.38	7648.87
375.58	7220.55
375.78	7157.36
375.97	7283.75
376.17	7351.62
376.37	7389.07
376.56	7705.04
376.76	7887.61
376.95	8610.83
377.15	9233.41
377.35	9685.14
377.54	9769.40
377.74	9865.36
377.93	9984.73
378.13	9628.96
378.33	9315.33
378.52	8407.20
378.72	8102.93
378.91	8201.24
379.11	7803.35
379.31	7700.36
379.50	7564.61
379.70	8203.58
379.89	9174.90
380.09	9533.00
380.28	9715.56
380.48	9762.37
380.68	9420.66
380.87	9261.50
381.07	8414.23
381.26	8053.78
381.46	7265.02
381.65	7267.36
381.85	6867.13
382.04	6593.29
382.24	6319.45
382.43	6064.33
382.63	5818.57
382.83	5748.36
383.02	5874.74
383.22	5806.87
383.41	5928.58
383.61	6345.19
383.80	7375.03
384.00	8425.93
384.19	9029.79
384.39	9343.42
384.58	9607.90
384.78	9483.85
384.97	9415.98
385.17	8774.67
385.36	8194.22
385.56	7808.03
385.75	8297.20
385.95	9114.05
386.14	9879.40
386.34	9488.53
386.53	9392.57
386.72	8793.39
386.92	9029.79
387.11	9437.04
387.31	9893.44
387.50	9675.77
387.70	9376.19
387.89	9296.61
388.09	9132.77
388.28	9195.96
388.48	9516.62
388.67	10090.05
388.86	11201.80
389.06	11894.60
389.25	12496.12
389.45	12510.16
389.64	12461.01
389.84	12439.95
390.03	12264.41
390.22	12212.92
390.42	12484.42
390.61	13366.80
390.81	14244.50
391.00	14684.52
391.19	14457.49
391.39	13909.80
391.58	12968.91
391.78	12276.11
391.97	11672.25
392.16	10942.00
392.36	9973.02
392.55	7941.44
392.75	6277.32
392.94	5310.68
393.13	5397.28
393.33	6345.19
393.52	7922.71
393.71	9783.44
393.91	11028.60
394.10	11737.79
394.29	13294.24
394.49	13991.72
394.68	15143.27
394.88	15122.20
395.07	15669.89
395.26	15494.35
395.46	14930.28
395.65	13795.12
395.84	12278.45
396.04	10129.84
396.23	8332.31
396.42	7082.46
396.62	6857.77
396.81	8241.03
397.00	10317.08
397.19	13174.88
397.39	15264.97
397.58	16950.16
397.77	18115.75
397.97	19033.24
398.16	19028.56
398.35	19845.40
398.55	20575.65
398.74	20994.61
398.93	21397.18
399.12	21212.28
399.32	20514.80
399.51	20915.03
399.70	22284.24
399.90	21902.73
400.09	21757.62
400.28	21661.66
400.47	21905.07
400.67	22958.31
400.86	23513.02
401.05	23314.08
401.24	23393.65
401.44	24088.79
401.63	24222.20
401.82	24051.34
402.01	24257.31
402.21	23934.32
402.40	24383.70
402.59	23388.97
402.78	22485.53
402.97	21900.39
403.17	22843.63
403.36	24423.49
403.55	25317.57
403.74	25481.41
403.93	23997.51
404.13	22293.60
404.32	21998.70
404.51	23248.54
404.70	24753.51
404.89	24622.44
405.09	24355.61
405.28	23676.86
405.47	23915.59
405.66	23620.69
405.85	22974.70
406.05	22558.08
406.24	22738.30
406.43	23620.69
406.62	24992.24
406.81	24369.66
407.00	23798.57
407.20	23208.75
407.39	23707.29
407.58	24620.10
407.77	25216.93
407.96	26536.99
408.15	26792.11
408.34	26431.67
408.54	28095.79
408.73	28077.07
408.92	27630.02
409.11	26654.02
409.30	25598.44
409.49	23864.10
409.68	22408.29
409.87	21806.77
410.07	23529.41
410.26	24994.58
410.45	26675.09
410.64	27234.47
410.83	28299.42
411.02	29132.65
411.21	29827.79
411.40	29228.61
411.59	29184.14
411.78	29312.87
411.98	28973.49
412.17	29216.91
412.36	28809.65
412.55	29090.52
412.74	28254.95
412.93	27587.89
413.12	27983.44
413.31	30682.08
413.50	31049.55
413.69	31260.20
413.88	30129.72
414.07	29212.23
414.26	30155.46
414.45	30780.39
414.64	30785.07
414.83	31035.50
415.02	30089.93
415.22	29984.60
415.41	31185.30
415.60	31880.44
415.79	33371.36
415.98	33467.32
416.17	33570.30
416.36	32481.95
416.55	32620.05
416.74	31569.15
416.93	30794.43
417.12	30801.45
417.31	31037.84
417.50	31566.81
417.69	32119.17
417.88	32811.97
418.07	31943.63
418.26	31409.99
418.45	31840.65
418.64	32800.27
418.83	34054.79
419.02	33268.37
419.21	33308.16
419.39	31592.55
419.58	30211.64
419.77	30684.42
419.96	32147.26
420.15	33556.26
420.34	34356.72
420.53	35400.60
420.72	35931.90
420.91	35952.97
421.10	35665.08
421.29	35669.76
421.48	33970.54
421.67	35618.27
421.86	34513.54
422.05	32130.87
422.24	29355.00
422.43	28858.81
422.61	31742.35
422.80	34602.48
422.99	34361.40
423.18	33062.41
423.37	32847.08
423.56	32954.74
423.75	33399.44
423.94	33654.56
424.13	32081.72
424.32	32444.51
424.50	32760.48
424.69	32072.36
424.88	32283.01
425.07	32217.47
425.26	32041.93
425.45	31669.79
425.64	31351.48
425.83	31189.98
426.01	33095.18
426.20	34010.32
426.39	33345.61
426.58	30656.34
426.77	28833.06
426.96	27990.47
427.15	29109.24
427.33	31517.65
427.52	32708.99
427.71	32545.15
427.90	31974.06
428.09	31920.23
428.28	31447.44
428.46	30380.15
428.65	29661.61
428.84	30426.96
429.03	30951.24
429.22	29448.62
429.40	27358.52
429.59	25378.43
429.78	22382.54
429.97	22703.20
430.16	22647.02
430.34	22916.19
430.53	23000.44
430.72	23601.96
430.91	26258.47
431.10	30679.74
431.28	35409.96
431.47	38567.35
431.66	38689.06
431.85	35288.26
432.03	32369.61
432.22	31232.11
432.41	33008.58
432.60	35964.67
432.79	36943.02
432.97	38052.43
433.16	36844.71
433.35	33507.11
433.54	30546.33
433.72	28856.46
433.91	29575.01
434.10	33577.33
434.28	35786.79
434.47	37305.80
434.66	36627.04
434.85	35807.86
435.03	35548.06
435.22	36840.03
435.41	38450.32
435.59	38366.06
435.78	39005.03
435.97	40084.01
436.16	39997.41
436.34	39545.69
436.53	38911.41
436.72	38892.68
436.90	36985.15
437.09	37530.49
437.28	36011.48
437.46	37373.67
437.65	37340.91
437.84	34609.50
438.02	32238.54
438.21	32034.91
438.40	33928.41
438.58	36631.72
438.77	37652.20
438.96	37708.37
439.14	39484.84
439.33	40067.63
439.52	40737.02
439.70	39592.50
439.89	38932.47
440.08	37979.87
440.26	37984.55
440.45	39316.32
440.63	41254.28
440.82	43835.89
441.01	43206.29
441.19	42749.88
441.38	43988.03
441.57	44825.94
441.75	45549.17
441.94	45872.16
442.12	45045.95
442.31	46000.89
442.50	45780.88
442.68	45280.00
442.87	44708.91
443.05	44619.97
443.24	45233.19
443.43	46007.91
443.61	46120.26
443.80	46965.19
443.98	44580.18
444.17	44388.26
444.35	47091.58
444.54	47185.20
444.73	46803.69
444.91	45270.64
445.10	44067.61
445.28	41867.50
445.47	41675.58
445.65	41933.04
445.84	42944.15
446.02	44402.30
446.21	44816.58
446.39	44921.90
446.58	45240.21
446.77	46148.34
446.95	46667.94
447.14	47697.78
447.32	48119.07
447.51	47159.45
447.69	45565.55
447.88	45848.75
448.06	46038.34
448.25	46597.73
448.43	46843.48
448.62	45986.85
448.80	45853.44
448.99	46438.57
449.17	46869.23
449.36	46581.34
449.54	48060.56
449.73	48425.68
449.91	48886.77
450.10	50082.78
450.28	50508.76
450.46	50295.77
450.65	50490.04
450.83	49848.73
451.02	48744.00
451.20	49036.56
451.39	49310.41
451.57	48842.30
451.76	49085.72
451.94	48451.43
452.13	47824.17
452.31	45940.04
452.49	43885.04
452.68	45083.40
452.86	44861.05
453.05	45282.34
453.23	46719.43
453.42	47290.52
453.60	48030.13
453.78	48531.01
453.97	48060.56
454.15	48069.92
454.34	47161.79
454.52	47875.66
454.70	47077.54
454.89	47269.46
455.07	47206.26
455.26	47746.93
455.44	49186.36
455.62	49764.47
455.81	49848.73
455.99	50031.29
456.17	49340.83
456.36	49455.52
456.54	50375.35
456.73	50698.34
456.91	51189.86
457.09	51056.45
457.28	52020.75
457.46	50403.44
457.64	50468.97
457.83	49261.26
458.01	48402.28
458.19	49144.23
458.38	49710.64
458.56	50391.73
458.74	50094.49
458.93	49633.40
459.11	49443.82
459.29	49308.07
459.48	49942.35
459.66	49797.24
459.84	49736.38
460.03	50471.31
460.21	50314.50
460.39	51456.68
460.57	51372.42
460.76	51660.30
460.94	51770.31
461.12	50869.20
461.31	51538.60
461.49	51164.11
461.67	51430.93
461.85	52313.31
462.04	52006.70
462.22	52247.78
462.40	51859.25
462.59	52161.18
462.77	51976.28
462.95	52193.95
463.13	51482.42
463.32	51278.80
463.50	51372.42
463.68	51114.96
463.86	51248.37
464.05	50768.56
464.23	49720.00
464.41	50279.39
464.59	49256.57
464.78	51449.66
464.96	51157.09
465.14	50459.61
465.32	51688.39
465.50	52439.70
465.69	52580.13
465.87	52149.48
466.05	50948.78
466.23	49584.25
466.41	48863.36
466.60	49492.97
466.78	49668.51
466.96	50218.53
467.14	50824.73
467.32	51040.06
467.51	51327.95
467.69	49577.23
467.87	50340.24
468.05	50848.14
468.23	50995.59
468.41	50997.93
468.60	51344.33
468.78	51461.36
468.96	50897.29
469.14	51503.49
469.32	51882.66
469.50	50597.70
469.69	50635.15
469.87	50197.47
470.05	49921.29
470.23	49640.42
470.41	50377.69
470.59	50529.83
470.77	50681.96
470.95	51576.04
471.14	51873.29
471.32	51484.76
471.50	53567.84
471.68	53581.88
471.86	53998.50
472.04	53876.79
472.22	54035.95
472.40	52594.18
472.58	52364.81
472.77	51803.08
472.95	52708.86
473.13	53319.74
473.31	52444.38
473.49	52898.45
473.67	53155.91
473.85	53460.18
474.03	54188.08
474.21	54218.51
474.39	54525.12
474.57	54817.69
474.75	54461.93
474.93	54391.71
475.12	53556.14
475.30	54045.31
475.48	53956.37
475.66	54302.77
475.84	54124.89
476.02	54021.90
476.20	53411.02
476.38	53993.82
476.56	55112.59
476.74	55264.73
476.92	55320.90
477.10	55987.95
477.28	56573.09
477.46	56573.09
477.64	56652.67
477.82	56882.04
478.00	56893.74
478.18	56397.55
478.36	56273.50
478.54	56465.42
478.72	56999.07
478.90	57357.17
479.08	58115.50
479.26	58403.39
479.44	58124.86
479.62	58003.16
479.80	57869.75
479.98	58237.21
480.16	58398.71
480.34	57961.03
480.52	58403.39
480.70	58635.10
480.88	58859.79
481.06	59201.51
481.24	59365.35
481.41	59573.66
481.59	60137.72
481.77	60076.87
481.95	59568.97
482.13	59545.57
482.31	59667.28
482.49	60114.32
482.67	59866.22
482.85	60275.82
483.03	60444.33
483.21	60863.29
483.39	60570.72
483.57	60130.70
483.74	60119.00
483.92	60331.99
484.10	60355.39
484.28	60872.65
484.46	61020.11
484.64	61336.08
484.82	60907.76
485.00	60697.11
485.18	59999.63
485.35	59058.74
485.53	57179.29
485.71	54674.91
485.89	54452.56
486.07	55994.98
486.25	57979.75
486.43	59723.45
486.61	59779.62
486.78	59819.41
486.96	60013.68
487.14	60872.65
487.32	61535.02
487.50	62209.10
487.68	62777.85
487.85	62925.30
488.03	62864.45
488.21	62602.31
488.39	62255.91
488.57	61811.21
488.75	61649.71
488.92	62426.77
489.10	64034.72
489.28	64881.99
489.46	65214.35
489.64	65296.27
489.81	65340.74
489.99	64910.08
490.17	64975.61
490.35	65338.40
490.53	64931.14
490.70	64783.69
490.88	64594.10
491.06	65535.00
491.24	65448.40
491.41	64619.85
491.59	63458.94
491.77	62897.22
491.95	63795.98
492.13	64535.59
492.30	65535.00
492.48	65535.00
492.66	65535.00
492.84	65535.00
493.01	65535.00
493.19	65535.00
493.37	65535.00
493.54	65535.00
493.72	65535.00
493.90	65535.00
494.08	65535.00
494.25	65535.00
494.43	65535.00
494.61	65535.00
494.79	65535.00
494.96	65535.00
495.14	65535.00
495.32	65535.00
495.49	65535.00
495.67	65535.00
495.85	65535.00
496.02	65535.00
496.20	65535.00
496.38	65535.00
496.55	65535.00
496.73	65535.00
496.91	65535.00
497.09	65535.00
497.26	65535.00
497.44	65535.00
497.62	65535.00
497.79	65535.00
497.97	65535.00
498.14	65535.00
498.32	65535.00
498.50	65535.00
498.67	65535.00
498.85	65535.00
499.03	65535.00
499.20	65535.00
499.38	65535.00
499.56	65535.00
499.73	65535.00
499.91	65535.00
500.08	65535.00
500.26	65535.00
500.44	65535.00
500.61	65535.00
500.79	65535.00
500.97	65535.00
501.14	65535.00
501.32	65535.00
501.49	65535.00
501.67	65535.00
501.84	65535.00
502.02	65535.00
502.20	65535.00
502.37	65535.00
502.55	65535.00
502.72	65535.00
502.90	65535.00
503.07	65535.00
503.25	65535.00
503.43	65535.00
503.60	65535.00
503.78	65535.00
503.95	65535.00
504.13	65535.00
504.30	65535.00
504.48	65535.00
504.65	65535.00
504.83	65535.00
505.01	65535.00
505.18	65535.00
505.36	65535.00
505.53	65535.00
505.71	65535.00
505.88	65535.00
506.06	65535.00
506.23	65535.00
506.41	65535.00
506.58	65535.00
506.76	65535.00
506.93	65535.00
507.11	65535.00
507.28	65535.00
507.46	65535.00
507.63	65535.00
507.81	65535.00
507.98	65535.00
508.16	65535.00
508.33	65535.00
508.50	65535.00
508.68	65535.00
508.85	65535.00
509.03	65535.00
509.20	65535.00
509.38	65535.00
509.55	65535.00
509.73	65535.00
509.90	65535.00
510.08	65535.00
510.25	65535.00
510.42	65535.00
510.60	65535.00
510.77	65535.00
510.95	65535.00
511.12	65535.00
511.30	65535.00
511.47	65535.00
511.64	65535.00
511.82	65535.00
511.99	65535.00
512.17	65535.00
512.34	65535.00
512.51	65535.00
512.69	65535.00
512.86	65535.00
513.04	65535.00
513.21	65535.00
513.38	65535.00
513.56	65535.00
513.73	65535.00
513.90	65535.00
514.08	65535.00
514.25	65535.00
514.43	65535.00
514.60	65535.00
514.77	65535.00
514.95	65535.00
515.12	65535.00
515.29	65535.00
515.47	65535.00
515.64	65535.00
515.81	65535.00
515.99	65535.00
516.16	65535.00
516.33	65535.00
516.51	65535.00
516.68	65535.00
516.85	64633.89
517.03	65116.04
517.20	65535.00
517.37	65535.00
517.54	65535.00
517.72	65535.00
517.89	65535.00
518.06	65535.00
518.24	65535.00
518.41	65535.00
518.58	65535.00
518.75	65535.00
518.93	65535.00
519.10	65535.00
519.27	65535.00
519.45	65535.00
519.62	65535.00
519.79	65535.00
519.96	65535.00
520.14	65535.00
520.31	65535.00
520.48	65535.00
520.65	65535.00
520.83	65535.00
521.00	65535.00
521.17	65535.00
521.34	65535.00
521.52	65535.00
521.69	65535.00
521.86	65535.00
522.03	65535.00
522.20	65535.00
522.38	65535.00
522.55	65535.00
522.72	65535.00
522.89	65535.00
523.07	65535.00
523.24	65535.00
523.41	65535.00
523.58	65535.00
523.75	65535.00
523.92	65535.00
524.10	65535.00
524.27	65535.00
524.44	65535.00
524.61	65535.00
524.78	65535.00
524.96	65535.00
525.13	65535.00
525.30	65535.00
525.47	65535.00
525.64	65535.00
525.81	65535.00
525.98	65535.00
526.16	65535.00
526.33	65535.00
526.50	65535.00
526.67	65535.00
526.84	65535.00
527.01	65535.00
527.18	65535.00
527.36	65535.00
527.53	65535.00
527.70	65535.00
527.87	65535.00
528.04	65535.00
528.21	65535.00
528.38	65535.00
528.55	65535.00
528.72	65535.00
528.89	65535.00
529.07	65535.00
529.24	65535.00
529.41	65535.00
529.58	65535.00
529.75	65535.00
529.92	65535.00
530.09	65535.00
530.26	65535.00
530.43	65535.00
530.60	65535.00
530.77	65535.00
530.94	65535.00
531.11	65535.00
531.28	65535.00
531.46	65535.00
531.63	65535.00
531.80	65535.00
531.97	65535.00
532.14	65535.00
532.31	65535.00
532.48	65535.00
532.65	65535.00
532.82	65535.00
532.99	65535.00
533.16	65535.00
533.33	65535.00
533.50	65535.00
533.67	65535.00
533.84	65535.00
534.01	65535.00
534.18	65535.00
534.35	65535.00
534.52	65535.00
534.69	65535.00
534.86	65535.00
535.03	65535.00
535.20	65535.00
535.37	65535.00
535.54	65535.00
535.71	65535.00
535.88	65535.00
536.05	65535.00
536.22	65535.00
536.38	65535.00
536.55	65535.00
536.72	65535.00
536.89	65535.00
537.06	65535.00
537.23	65535.00
537.40	65535.00
537.57	65535.00
537.74	65535.00
537.91	65535.00
538.08	65535.00
538.25	65535.00
538.42	65535.00
538.59	65535.00
538.75	65535.00
538.92	65535.00
539.09	65535.00
539.26	65535.00
539.43	65535.00
539.60	65535.00
539.77	65535.00
539.94	65535.00
540.11	65535.00
540.28	65535.00
540.44	65535.00
540.61	65535.00
540.78	65535.00
540.95	65535.00
541.12	65535.00
541.29	65535.00
541.46	65535.00
541.62	65535.00
541.79	65535.00
541.96	65535.00
542.13	65535.00
542.30	65535.00
542.47	65535.00
542.63	65535.00
542.80	65535.00
542.97	65535.00
543.14	65535.00
543.31	65535.00
543.48	65535.00
543.64	65535.00
543.81	65535.00
543.98	65535.00
544.15	65535.00
544.32	65535.00
544.48	65535.00
544.65	65535.00
544.82	65535.00
544.99	65535.00
545.16	65535.00
545.32	65535.00
545.49	65535.00
545.66	65535.00
545.83	65535.00
546.00	65535.00
546.16	65535.00
546.33	65535.00
546.50	65535.00
546.67	65535.00
546.83	65535.00
547.00	65535.00
547.17	65535.00
547.34	65535.00
547.50	65535.00
547.67	65535.00
547.84	65535.00
548.00	65535.00
548.17	65535.00
548.34	65535.00
548.51	65535.00
548.67	65535.00
548.84	65535.00
549.01	65535.00
549.18	65535.00
549.34	65535.00
549.51	65535.00
549.68	65535.00
549.84	65535.00
550.01	65535.00
550.18	65535.00
550.34	65535.00
550.51	65535.00
550.68	65535.00
550.84	65535.00
551.01	65535.00
551.18	65535.00
551.34	65535.00
551.51	65535.00
551.68	65535.00
551.84	65535.00
552.01	65535.00
552.18	65535.00
552.34	65535.00
552.51	65535.00
552.68	65535.00
552.84	65535.00
553.01	65535.00
553.18	65535.00
553.34	65535.00
553.51	65535.00
553.67	65535.00
553.84	65535.00
554.01	65535.00
554.17	65535.00
554.34	65535.00
554.51	65535.00
554.67	65535.00
554.84	65535.00
555.00	65535.00
555.17	65535.00
555.33	65535.00
555.50	65535.00
555.67	65535.00
555.83	65535.00
556.00	65535.00
556.16	65535.00
556.33	65535.00
556.50	65535.00
556.66	65535.00
556.83	65535.00
556.99	65535.00
557.16	65535.00
557.32	65535.00
557.49	65535.00
557.65	65535.00
557.82	65535.00
557.98	65535.00
558.15	65535.00
558.32	65535.00
558.48	65535.00
558.65	65535.00
558.81	65535.00
558.98	65535.00
559.14	65535.00
559.31	65535.00
559.47	65535.00
559.64	65535.00
559.80	65535.00
559.97	65535.00
560.13	65535.00
560.30	65535.00
560.46	65535.00
560.63	65535.00
560.79	65535.00
560.96	65535.00
561.12	65535.00
561.29	65535.00
561.45	65535.00
561.61	65535.00
561.78	65535.00
561.94	65535.00
562.11	65535.00
562.27	65535.00
562.44	65535.00
562.60	65535.00
562.77	65535.00
562.93	65535.00
563.10	65535.00
563.26	65535.00
563.42	65535.00
563.59	65535.00
563.75	65535.00
563.92	65535.00
564.08	65535.00
564.24	65535.00
564.41	65535.00
564.57	65535.00
564.74	65535.00
564.90	65535.00
565.07	65535.00
565.23	65535.00
565.39	65535.00
565.56	65535.00
565.72	65535.00
565.88	65535.00
566.05	65535.00
566.21	65535.00
566.38	65535.00
566.54	65535.00
566.70	65535.00
566.87	65535.00
567.03	65535.00
567.19	65535.00
567.36	65535.00
567.52	65535.00
567.68	65535.00
567.85	65535.00
568.01	65535.00
568.17	65535.00
568.34	65535.00
568.50	65535.00
568.66	65535.00
568.83	65535.00
568.99	65535.00
569.15	65535.00
569.32	65535.00
569.48	65535.00
569.64	65535.00
569.81	65535.00
569.97	65535.00
570.13	65535.00
570.30	65488.19
570.46	65242.43
570.62	64683.04
570.78	64928.80
570.95	65041.15
571.11	65532.66
571.27	65535.00
571.43	65535.00
571.60	65535.00
571.76	65535.00
571.92	65535.00
572.09	65535.00
572.25	65535.00
572.41	65535.00
572.57	65535.00
572.74	65535.00
572.90	65535.00
573.06	65535.00
573.22	65535.00
573.38	65535.00
573.55	65535.00
573.71	65535.00
573.87	65535.00
574.03	65535.00
574.20	65535.00
574.36	65535.00
574.52	65535.00
574.68	65535.00
574.84	65174.56
575.01	64811.77
575.17	64739.22
575.33	65137.11
575.49	65247.11
575.65	65478.83
575.82	65357.12
575.98	64884.33
576.14	65162.85
576.30	65305.63
576.46	65338.40
576.62	65340.74
576.79	65282.22
576.95	65155.83
577.11	65064.55
577.27	65214.35
577.43	65298.61
577.59	64711.13
577.75	64551.98
577.92	64058.12
578.08	64100.25
578.24	64013.65
578.40	64315.58
578.56	64512.19
578.72	64470.06
578.88	64551.98
579.04	64839.86
579.21	65048.17
579.37	64753.26
579.53	64966.25
579.69	64713.47
579.85	64989.66
580.01	64736.88
580.17	64264.09
580.33	64243.02
580.49	64502.82
580.65	64811.77
580.82	64874.97
580.98	64661.98
581.14	64797.73
581.30	64898.37
581.46	64732.20
581.62	64884.33
581.78	64844.54
581.94	65066.89
582.10	65254.14
582.26	65109.02
582.42	65204.98
582.58	65008.38
582.74	65029.44
582.90	65169.88
583.06	64870.29
583.22	64678.36
583.38	64661.98
583.54	64701.77
583.70	64659.64
583.86	64725.17
584.02	64493.46
584.18	64849.22
584.34	64610.49
584.50	64680.70
584.66	64479.42
584.82	64100.25
584.98	64013.65
585.14	63884.92
585.30	63250.64
585.46	63084.46
585.62	63100.84
585.78	63288.09
585.94	63351.28
586.10	63810.03
586.26	63903.65
586.42	64179.83
586.58	64247.71
586.74	64020.67
586.90	63763.21
587.06	63756.19
587.22	63779.60
587.38	63426.18
587.54	63269.36
587.70	63505.76
587.86	63168.72
588.02	63021.26
588.18	63035.31
588.34	62220.80
588.49	61052.87
588.65	59440.24
588.81	59398.12
588.97	59561.95
589.13	59465.99
589.29	59461.31
589.45	59992.61
589.61	60832.86
589.77	61502.26
589.93	61815.89
590.08	62485.28
590.24	62599.97
590.40	62714.65
590.56	62941.69
590.72	62686.57
590.88	62026.54
591.04	62052.28
591.20	61956.32
591.35	61965.68
591.51	62279.31
591.67	62248.89
591.83	62396.34
591.99	62326.13
592.15	62333.15
592.31	62431.45
592.46	62284.00
592.62	62031.22
592.78	61883.76
592.94	62143.56
593.10	62293.36
593.26	62253.57
593.41	62567.20
593.57	62162.29
593.73	61811.21
593.89	61797.16
594.05	61565.45
594.20	61537.36
594.36	61179.26
594.52	60956.91
594.68	61052.87
594.84	61347.78
594.99	61558.43
595.15	61677.80
595.31	61748.01
595.47	61949.30
595.62	61787.80
595.78	61900.15
595.94	62220.80
596.10	61923.55
596.25	61890.79
596.41	61780.78
596.57	61286.93
596.73	61843.98
596.88	61895.47
597.04	61736.31
597.20	61499.92
597.36	61291.61
597.51	61593.54
597.67	61626.31
597.83	61357.14
597.99	61228.41
598.14	61001.38
598.30	60877.33
598.46	60903.08
598.61	60966.27
598.77	60882.02
598.93	61228.41
599.09	61420.34
599.24	61499.92
599.40	61212.03
599.56	61619.28
599.71	61230.75
599.87	61446.08
600.03	61190.97
600.18	60947.55
600.34	60626.90
600.50	60626.90
600.65	60753.29
600.81	60715.84
600.97	60846.91
601.12	60706.47
601.28	60783.71
601.44	60643.28
601.59	60369.44
601.75	60374.12
601.91	60126.02
602.06	60322.63
602.22	60580.09
602.37	60339.01
602.53	60409.23
602.69	60662.00
602.84	60818.82
603.00	60954.57
603.16	61291.61
603.31	61169.90
603.47	61139.47
603.62	60968.61
603.78	60643.28
603.94	60516.89
604.09	60683.07
604.25	60528.59
604.40	60434.97
604.56	60570.72
604.71	60816.48
604.87	60467.74
605.03	60371.78
605.18	60247.73
605.34	60200.92
605.49	60170.49
605.65	60432.63
605.80	60470.08
605.96	60081.55
606.12	59896.65
606.27	60226.66
606.43	59852.18
606.58	60093.25
606.74	60334.33
606.89	60224.32
607.05	60430.29
607.20	60278.16
607.36	59709.41
607.51	59739.83
607.67	59501.10
607.82	59877.93
607.98	59475.35
608.13	59372.37
608.29	59402.80
608.44	59398.12
608.60	59241.30
608.75	59332.58
608.91	59547.91
609.06	59503.44
609.22	59496.42
609.37	59276.41
609.53	59238.96
609.68	59009.59
609.84	58363.60
609.99	58330.83
610.15	58412.75
610.30	58464.24
610.46	58798.94
610.61	59117.25
610.76	59238.96
610.92	59330.24
611.07	59372.37
611.23	59234.28
611.38	59327.90
611.54	59182.79
611.69	58787.24
611.84	58291.04
612.00	58047.63
612.15	57895.49
612.31	58489.99
612.46	58239.55
612.62	58288.70
612.77	58473.60
612.92	58700.64
613.08	58071.03
613.23	57469.51
613.39	57029.49
613.54	57034.17
613.69	57385.25
613.85	57176.95
614.00	57043.54
614.15	57471.85
614.31	57897.83
614.46	58085.07
614.62	57705.91
614.77	57642.71
614.92	57635.69
615.08	57729.31
615.23	57497.60
615.38	57415.68
615.54	56907.79
615.69	56603.52
615.84	55955.19
616.00	55564.32
616.15	55915.40
616.30	56329.67
616.46	56247.75
616.61	56133.07
616.76	56484.15
616.92	56837.57
617.07	56882.04
617.22	56762.67
617.37	56762.67
617.53	57226.10
617.68	57111.41
617.83	57361.85
617.99	56985.02
618.14	57043.54
618.29	57130.14
618.45	56779.06
618.60	56341.38
618.75	56062.85
618.90	56025.40
619.06	56552.02
619.21	56566.07
619.36	56992.04
619.51	56680.75
619.67	56577.77
619.82	56673.73
619.97	56858.63
620.12	56561.39
620.28	56802.46
620.43	56910.13
620.58	56774.37
620.73	56640.96
620.89	56212.65
621.04	56303.93
621.19	56207.97
621.34	55973.91
621.49	55571.34
621.65	55423.89
621.80	55910.72
621.95	55831.14
622.10	55749.22
622.25	55611.13
622.41	55702.41
622.56	55311.54
622.71	54946.42
622.86	54595.34
623.01	54768.54
623.16	55290.48
623.32	54873.86
623.47	54878.54
623.62	54962.80
623.77	54681.94
623.92	54616.40
624.07	53963.39
624.23	53771.47
624.38	53998.50
624.53	54468.95
624.68	54298.09
624.83	53862.75
624.98	53769.13
625.13	53687.21
625.29	53530.39
625.44	53586.57
625.59	53319.74
625.74	53427.41
625.89	53514.01
626.04	53911.90
626.19	53680.19
626.34	53799.55
626.49	53935.30
626.65	53778.49
626.80	53825.30
626.95	53752.74
627.10	53553.80
627.25	52818.87
627.40	51662.64
627.55	51196.88
627.70	50691.32
627.85	51248.37
628.00	51875.63
628.15	52690.14
628.30	52453.75
628.45	52715.89
628.60	52411.62
628.76	52498.22
628.91	52149.48
629.06	52161.18
629.21	52222.03
629.36	51660.30
629.51	51672.01
629.66	51573.70
629.81	51416.89
629.96	51274.12
630.11	51433.27
630.26	52044.15
630.41	51468.38
630.56	51449.66
630.71	51840.53
630.86	51826.48
631.01	51709.46
631.16	51210.92
631.31	50408.12
631.46	50354.29
631.61	50686.64
631.76	50653.87
631.91	50965.17
632.06	51000.27
632.21	51632.22
632.36	51707.12
632.51	51398.16
632.66	51676.69
632.81	51536.26
632.96	50810.69
633.10	51061.13
633.25	50946.44
633.40	50845.80
633.55	50763.88
633.70	50562.59
633.85	50646.85
634.00	50988.57
634.15	50983.89
634.30	50857.50
634.45	50808.35
634.60	50808.35
634.75	50941.76
634.90	51114.96
635.05	51262.41
635.19	50803.67
635.34	50768.56
635.49	50522.80
635.64	49900.22
635.79	50150.66
635.94	49638.08
636.09	49897.88
636.24	50101.51
636.39	50033.63
636.53	50209.17
636.68	50197.47
636.83	50394.07
636.98	50859.84
637.13	51002.61
637.28	50834.10
637.43	51276.46
637.57	50464.29
637.72	50330.88
637.87	50300.45
638.02	49961.08
638.17	50075.76
638.32	49731.70
638.46	50014.91
638.61	49654.47
638.76	49343.17
638.91	49460.20
639.06	49268.28
639.20	49298.70
639.35	49055.29
639.50	48865.70
639.65	48781.45
639.80	48318.02
639.94	48704.21
640.09	49130.19
640.24	48903.15
640.39	48734.63
640.54	48343.77
640.68	47924.81
640.83	47840.55
640.98	47597.13
641.13	47372.44
641.27	48149.50
641.42	47765.65
641.57	47611.18
641.72	47442.66
641.86	47562.03
642.01	47447.34
642.16	48264.19
642.31	48133.12
642.45	48587.18
642.60	47826.51
642.75	48041.84
642.90	47655.65
643.04	47400.53
643.19	47709.48
643.34	47517.56
643.48	47789.06
643.63	47096.26
643.78	47246.05
643.93	47576.07
644.07	48044.18
644.22	48081.63
644.37	47899.06
644.51	47239.03
644.66	47143.07
644.81	47096.26
644.95	47213.29
645.10	46932.42
645.25	46073.45
645.39	46557.94
645.54	46298.14
645.69	45560.87
645.83	45343.20
645.98	45375.97
646.13	45462.57
646.27	44949.99
646.42	45205.11
646.57	45162.98
646.71	44828.28
646.86	44442.09
647.00	44931.26
647.15	44715.93
647.30	44060.58
647.44	44287.62
647.59	43941.22
647.74	44282.94
647.88	44032.50
648.03	44294.64
648.17	44229.10
648.32	44194.00
648.47	44828.28
648.61	44404.64
648.76	44612.95
648.90	43384.17
649.05	42146.03
649.20	41390.03
649.34	41371.31
649.49	41127.89
649.63	42389.44
649.78	42752.23
649.92	43182.88
650.07	43976.33
650.21	44095.69
650.36	44411.67
650.51	44301.66
650.65	44547.42
650.80	44055.90
650.94	43819.51
651.09	43164.16
651.23	42143.69
651.38	41792.61
651.52	41797.29
651.67	42312.20
651.81	42593.07
651.96	43138.41
652.10	43360.76
652.25	43124.37
652.39	43000.32
652.54	43353.74
652.68	43107.99
652.83	42909.04
652.97	42562.64
653.12	42590.73
653.26	43096.28
653.41	43302.25
653.55	43391.19
653.70	43175.86
653.84	42972.24
653.99	42925.42
654.13	41935.38
654.27	41294.07
654.42	40872.78
654.56	41130.23
654.71	41184.07
654.85	40914.90
655.00	40081.67
655.14	40128.48
655.29	39541.01
655.43	38689.06
655.57	36917.27
655.72	34424.60
655.86	32130.87
656.01	30466.75
656.15	31283.60
656.30	33132.62
656.44	34501.84
656.58	36538.10
656.73	37804.33
656.87	38312.23
657.01	38719.48
657.16	39068.22
657.30	39702.51
657.45	40175.30
657.59	40084.01
657.73	40339.13
657.88	40407.01
658.02	40563.82
658.16	40708.94
658.31	40243.17
658.45	40383.60
658.60	40362.54
658.74	39819.53
658.88	38911.41
659.03	38675.01
659.17	38939.49
659.31	39269.51
659.46	39594.84
659.60	39835.92
659.74	40137.85
659.89	40231.47
660.03	39990.39
660.17	40196.36
660.32	40318.07
660.46	40032.52
660.60	39051.84
660.74	38960.56
660.89	39421.64
661.03	39288.23
661.17	39456.75
661.32	39269.51
661.46	39646.33
661.60	39709.53
661.74	38866.94
661.89	39622.93
662.03	39461.43
662.17	38532.24
662.31	38873.96
662.46	39093.97
662.60	39068.22
662.74	38876.30
662.88	38188.18
663.03	37577.30
663.17	38244.35
663.31	37787.95
663.45	37862.85
663.60	38085.20
663.74	37525.81
663.88	37366.65
664.02	37427.51
664.17	38249.03
664.31	37687.31
664.45	37818.38
664.59	37699.01
664.73	38073.49
664.88	38085.20
665.02	37572.62
665.16	37479.00
665.30	37053.02
665.44	37078.77
665.59	36715.98
665.73	36973.44
665.87	36201.07
666.01	36119.15
666.15	35632.32
666.29	35880.41
666.44	36030.21
666.58	36091.06
666.72	35915.52
666.86	36596.62
667.00	36313.41
667.14	35819.56
667.28	35882.75
667.43	35864.03
667.57	35882.75
667.71	35672.10
667.85	35424.01
667.99	35211.02
668.13	35208.68
668.27	35498.91
668.41	35346.77
668.56	35274.21
668.70	35012.07
668.84	34932.50
668.98	34995.69
669.12	34848.24
669.26	35072.93
669.40	34780.36
669.54	34141.39
669.68	34749.93
669.82	34494.82
669.96	34122.67
670.10	34230.33
670.25	34064.16
670.39	33710.74
670.53	33586.69
670.67	33001.55
670.81	33546.90
670.95	33464.98
671.09	33137.30
671.23	33333.91
671.37	33071.77
671.51	32807.29
671.65	32804.95
671.79	32613.02
671.93	32973.47
672.07	33233.27
672.21	33682.65
672.35	32716.01
672.49	33134.96
672.63	32584.94
672.77	32381.31
672.91	32779.20
673.05	32561.53
673.19	32987.51
673.33	32804.95
673.47	32437.48
673.61	32149.60
673.75	31721.28
673.89	32297.05
674.03	32442.17
674.17	31842.99
674.31	31793.84
674.45	31353.82
674.59	31339.77
674.73	30969.97
674.87	31288.28
675.01	30756.98
675.15	30614.21
675.29	31211.04
675.43	31009.76
675.56	30630.59
675.70	30668.04
675.84	30539.31
675.98	29546.92
676.12	31108.06
676.26	30520.59
676.40	29989.28
676.54	29806.72
676.68	30089.93
676.82	29528.20
676.96	29406.49
677.10	29858.21
677.23	29362.02
677.37	29460.32
677.51	29163.08
677.65	29528.20
677.79	28868.17
677.93	28678.58
678.07	29097.54
678.21	28250.27
678.34	28418.78
678.48	28432.83
678.62	28257.29
678.76	28418.78
678.90	28390.70
679.04	28388.36
679.18	28524.11
679.31	28222.18
679.45	28011.53
679.59	27702.58
679.73	27852.38
679.87	27269.58
680.00	27587.89
680.14	27597.26
680.28	27236.81
680.42	26930.20
680.56	26665.72
680.70	26829.56
680.83	26665.72
680.97	26546.36
681.11	26354.43
681.25	26246.77
681.39	26192.94
681.52	26443.37
681.66	25935.48
681.80	26225.70
681.94	26300.60
682.07	26546.36
682.21	25816.11
682.35	25490.77
682.49	25809.09
682.62	25135.01
682.76	24868.19
682.90	24582.65
683.04	25235.66
683.17	25518.86
683.31	24673.93
683.45	24723.08
683.59	24556.90
683.72	24086.45
683.86	23906.23
684.00	23917.93
684.13	23529.41
684.27	23775.16
684.41	24002.19
684.55	23857.08
684.68	23463.87
684.82	23920.28
684.96	23580.90
685.09	23250.88
685.23	23091.73
685.37	23159.60
685.50	22995.76
685.64	23190.03
685.78	22852.99
685.91	22906.82
686.05	22551.06
686.19	22108.70
686.32	20830.77
686.46	18403.63
686.60	16224.59
686.73	15098.80
686.87	14520.68
687.01	14162.58
687.14	14445.79
687.28	14696.22
687.42	15592.65
687.55	16243.32
687.69	17156.13
687.82	18106.38
687.96	18412.99
688.10	18436.40
688.23	18265.54
688.37	17516.57
688.50	17156.13
688.64	17357.41
688.78	16973.56
688.91	17158.47
689.05	17125.70
689.18	16868.24
689.32	16901.01
689.46	17149.11
689.59	17352.73
689.73	17752.96
689.86	17221.66
690.00	17277.83
690.13	17308.26
690.27	17568.06
690.41	17441.67
690.54	17102.29
690.68	17366.78
690.81	17729.56
690.95	17666.36
691.08	17462.74
691.22	17322.30
691.35	17315.28
691.49	17624.23
691.62	17514.23
691.76	17451.03
691.89	17439.33
692.03	17493.16
692.16	17444.01
692.30	17160.81
692.43	17181.87
692.57	17048.46
692.70	16931.44
692.84	16540.57
692.97	16500.78
693.11	16409.50
693.24	16671.64
693.38	16720.79
693.51	16507.80
693.65	16006.92
693.78	15840.75
693.92	15733.08
694.05	15761.17
694.19	15704.99
694.32	15779.89
694.45	15866.49
694.59	15683.93
694.72	15786.91
694.86	15829.04
694.99	15796.28
695.13	15510.73
695.26	15393.70
695.39	15297.74
695.53	15264.97
695.66	15250.93
695.80	15360.94
695.93	15438.17
696.07	15604.35
696.20	15616.05
696.33	15932.03
696.47	15796.28
696.60	15943.73
696.73	16056.08
696.87	15990.54
697.00	15925.00
697.14	15463.92
697.27	15330.51
697.40	15115.18
697.54	14726.65
697.67	14579.20
697.80	14464.51
697.94	14183.65
698.07	14420.04
698.21	14239.82
698.34	13935.55
698.47	13790.44
698.61	13645.32
698.74	13528.30
698.87	13694.47
699.01	13591.49
699.14	13577.45
699.27	13640.64
699.40	13685.11
699.54	13537.66
699.67	13387.86
699.80	13294.24
699.94	13027.42
700.07	13305.95
700.20	13156.15
700.34	12587.40
700.47	12868.27
700.60	12786.35
700.73	12554.63
700.87	12730.17
701.00	12779.32
701.13	12582.72
701.26	12697.41
701.40	12133.34
701.53	12395.48
701.66	12105.25
701.79	12182.49
701.93	12081.85
702.06	11950.78
702.19	12236.32
702.32	12119.29
702.46	11866.52
702.59	11845.45
702.72	12035.03
702.85	11971.84
702.99	12116.95
703.12	11913.33
703.25	11857.15
703.38	11908.65
703.51	11789.28
703.65	11510.75
703.78	11300.11
703.91	11337.56
704.04	11637.14
704.17	11644.17
704.31	11487.35
704.44	11527.14
704.57	11382.03
704.70	11279.04
704.83	11360.96
704.96	11131.59
705.10	11052.01
705.23	10693.91
>>>>>End Processed Spectral Data<<<<<
