SpectraSuite Data File
++++++++++++++++++++++++++++++++++++
Date: Mon Oct 07 14:53:32 GMT-05:00 2013
User: price-jones
Dark Spectrum Present: No
Reference Spectrum Present: No
Number of Sampled Component Spectra: 1
Spectrometers: USB2+H05261
Integration Time (usec): 100000 (USB2+H05261)
Spectra Averaged: 1 (USB2+H05261)
Boxcar Smoothing: 0 (USB2+H05261)
Correct for Electrical Dark: No (USB2+H05261)
Strobe/Lamp Enabled: No (USB2+H05261)
Correct for Detector Non-linearity: No (USB2+H05261)
Correct for Stray Light: No (USB2+H05261)
Number of Pixels in Processed Spectrum: 2048
>>>>>Begin Processed Spectral Data<<<<<
365.73	0.00
365.92	0.00
366.12	0.00
366.32	0.00
366.52	0.00
366.72	0.00
366.91	0.00
367.11	0.00
367.31	0.00
367.51	0.00
367.70	0.00
367.90	0.00
368.10	0.00
368.30	0.00
368.49	0.00
368.69	0.00
368.89	0.00
369.09	0.00
369.28	0.00
369.48	0.00
369.68	0.00
369.87	0.00
370.07	0.00
370.27	0.00
370.47	751.31
370.66	3295.47
370.86	4032.74
371.06	4138.07
371.25	4325.31
371.45	3955.51
371.65	3637.19
371.84	3297.81
372.04	3368.03
372.24	3892.31
372.44	3955.51
372.63	4070.19
372.83	3730.81
373.03	3267.39
373.22	3021.63
373.42	3295.47
373.62	3613.79
373.81	4119.34
374.01	3929.76
374.21	3524.85
374.40	3428.88
374.60	3431.23
374.79	3871.25
374.99	4622.56
375.19	4863.63
375.38	4957.25
375.58	4678.73
375.78	4477.44
375.97	4674.05
376.17	4966.62
376.37	4802.78
376.56	4950.23
376.76	5287.27
376.95	5540.05
377.15	5884.11
377.35	6258.59
377.54	6382.64
377.74	6434.13
377.93	6558.18
378.13	6455.20
378.33	6246.89
378.52	5631.33
378.72	5465.15
378.91	5392.59
379.11	5135.14
379.31	4908.10
379.50	4887.04
379.70	5465.15
379.89	5853.68
380.09	6225.82
380.28	6361.58
380.48	6628.40
380.68	6331.15
380.87	6186.04
381.07	5748.36
381.26	5373.87
381.46	4844.91
381.65	4753.63
381.85	4762.99
382.04	4484.47
382.24	4166.15
382.43	3960.19
382.63	3988.27
382.83	3922.74
383.02	3868.91
383.22	4009.34
383.41	3960.19
383.61	4374.46
383.80	4788.74
384.00	5432.38
384.19	6293.70
384.39	6494.99
384.58	6335.83
384.78	6099.44
384.97	6237.53
385.17	5942.62
385.36	5813.89
385.56	5266.21
385.75	5486.22
385.95	6029.22
386.14	6621.38
386.34	6492.65
386.53	6153.27
386.72	5928.58
386.92	5867.72
387.11	6340.51
387.31	6511.37
387.50	6576.91
387.70	6146.25
387.89	6394.34
388.09	6434.13
388.28	6363.92
388.48	6356.90
388.67	6829.68
388.86	7531.84
389.06	8212.94
389.25	8552.32
389.45	8568.70
389.64	8528.91
389.84	8449.33
390.03	8395.50
390.22	8362.73
390.42	8695.09
390.61	9181.92
390.81	9830.25
391.00	9947.28
391.19	9844.29
391.39	9607.90
391.58	8954.89
391.78	8709.13
391.97	8196.56
392.16	7548.23
392.36	7068.42
392.55	5540.05
392.75	4463.40
392.94	3648.90
393.13	3531.87
393.33	4163.81
393.52	5296.63
393.71	6656.48
393.91	7702.70
394.10	8255.07
394.29	8924.46
394.49	9621.94
394.68	10574.54
394.88	10340.49
395.07	10995.84
395.26	10909.24
395.46	10431.77
395.65	9764.72
395.84	8631.90
396.04	7276.73
396.23	5966.03
396.42	5074.28
396.62	4922.15
396.81	5425.36
397.00	7133.95
397.19	8793.39
397.39	10429.43
397.58	12044.40
397.77	12519.53
397.97	12915.08
398.16	13156.15
398.35	13626.60
398.55	13919.17
398.74	14310.04
398.93	14956.02
399.12	14450.47
399.32	14193.01
399.51	14569.83
399.70	15447.54
399.90	15166.67
400.09	15269.66
400.28	15124.54
400.47	15332.85
400.67	15850.11
400.86	16535.88
401.05	16549.93
401.24	16760.58
401.44	16720.79
401.63	16893.99
401.82	17121.02
402.01	17055.48
402.21	16870.58
402.40	17139.74
402.59	16886.97
402.78	15723.72
402.97	15482.64
403.17	15983.52
403.36	17085.91
403.55	17701.47
403.74	18178.94
403.93	17226.34
404.13	16030.33
404.32	15337.53
404.51	16147.36
404.70	17813.82
404.89	17392.52
405.09	17289.54
405.28	16482.05
405.47	16786.32
405.66	16428.22
405.85	16088.84
406.05	15712.02
406.24	15866.49
406.43	16659.93
406.62	17472.10
406.81	17284.86
407.00	17060.16
407.20	16383.75
407.39	16505.46
407.58	17326.99
407.77	17930.84
407.96	18391.93
408.15	18778.12
408.34	18946.64
408.54	19791.57
408.73	19770.51
408.92	19365.59
409.11	18583.85
409.30	18094.68
409.49	17006.33
409.68	15946.07
409.87	15461.58
410.07	16367.37
410.26	17708.49
410.45	18843.65
410.64	19344.53
410.83	19601.99
411.02	20266.70
411.21	21259.09
411.40	20795.66
411.59	20751.19
411.78	20456.28
411.98	20402.45
412.17	20706.72
412.36	20362.66
412.55	20224.57
412.74	19695.61
412.93	19197.07
413.12	19866.47
413.31	21720.17
413.50	21624.21
413.69	22445.74
413.88	21359.73
414.07	20830.77
414.26	20849.49
414.45	21530.59
414.64	22087.64
414.83	21642.93
415.02	21291.85
415.22	21266.11
415.41	21614.85
415.60	22735.96
415.79	23517.70
415.98	24051.34
416.17	23962.40
416.36	23477.91
416.55	22885.76
416.74	22057.21
416.93	21565.70
417.12	21434.63
417.31	22178.92
417.50	22480.85
417.69	23164.28
417.88	22939.59
418.07	22602.55
418.26	22544.04
418.45	22679.79
418.64	23152.58
418.83	24449.24
419.02	23838.36
419.21	23838.36
419.39	22719.58
419.58	21624.21
419.77	21546.97
419.96	22436.38
420.15	23749.42
420.34	24854.15
420.53	25139.69
420.72	25783.34
420.91	25661.63
421.10	25429.92
421.29	25539.93
421.48	24109.86
421.67	25294.17
421.86	24542.86
422.05	23222.80
422.24	20840.13
422.43	20301.81
422.61	22623.62
422.80	24112.20
422.99	24664.57
423.18	23728.35
423.37	23110.45
423.56	23140.88
423.75	23690.90
423.94	23880.49
424.13	22724.26
424.32	23164.28
424.50	22991.08
424.69	22705.54
424.88	23070.66
425.07	23213.43
425.26	22824.90
425.45	23073.00
425.64	22448.08
425.83	22398.93
426.01	23288.33
426.20	24390.72
426.39	23927.30
426.58	22256.15
426.77	20676.29
426.96	19728.38
427.15	20421.17
427.33	22160.19
427.52	23363.23
427.71	23012.15
427.90	23147.90
428.09	22590.85
428.28	22616.60
428.46	21851.24
428.65	21186.53
428.84	21724.85
429.03	22192.96
429.22	21125.68
429.40	19929.66
429.59	18174.26
429.78	15971.82
429.97	15864.15
430.16	16189.49
430.34	16489.07
430.53	16184.80
430.72	16573.33
430.91	18209.37
431.10	21752.94
431.28	25366.73
431.47	27508.32
431.66	27660.45
431.85	25355.02
432.03	23332.80
432.22	22141.47
432.41	22939.59
432.60	25687.38
432.79	26230.38
432.97	27246.18
433.16	26551.04
433.35	24460.94
433.54	22052.53
433.72	20877.58
433.91	21025.03
434.10	23737.71
434.28	25343.32
434.47	26960.63
434.66	26384.86
434.85	25422.90
435.03	25483.75
435.22	26302.94
435.41	27789.18
435.59	27604.28
435.78	28194.09
435.97	28697.31
436.16	29151.37
436.34	28638.80
436.53	27840.67
436.72	28198.77
436.90	26527.63
437.09	26635.30
437.28	26288.90
437.46	26925.52
437.65	26885.73
437.84	25151.40
438.02	23363.23
438.21	22764.05
438.40	24362.64
438.58	26019.74
438.77	26693.81
438.96	26735.94
439.14	28224.52
439.33	28989.88
439.52	29376.06
439.70	28629.43
439.89	28458.57
440.08	27061.27
440.26	27358.52
440.45	28570.92
440.63	30085.25
440.82	31798.52
441.01	30515.90
441.19	31117.42
441.38	31082.31
441.57	32425.78
441.75	33212.20
441.94	33127.94
442.12	32315.78
442.31	33558.60
442.50	33202.84
442.68	32936.02
442.87	32535.79
443.05	32371.95
443.24	32290.03
443.43	33137.30
443.61	33991.60
443.80	34525.24
443.98	32701.96
444.17	32243.22
444.35	34054.79
444.54	34572.05
444.73	34462.05
444.91	32919.63
445.10	31674.47
445.28	30754.64
445.47	29670.97
445.65	30312.28
445.84	30937.20
446.02	32194.07
446.21	32737.07
446.39	32865.80
446.58	33132.62
446.77	33624.14
446.95	33383.06
447.14	34967.60
447.32	35363.15
447.51	34581.42
447.69	33303.48
447.88	32940.70
448.06	33448.60
448.25	34345.02
448.43	34546.31
448.62	33755.21
448.80	33057.73
448.99	33680.31
449.17	33914.36
449.36	34295.87
449.54	35171.23
449.73	35744.66
449.91	36348.52
450.10	37102.17
450.28	37298.78
450.46	37228.56
450.65	37589.00
450.83	37132.60
451.02	36495.97
451.20	36114.47
451.39	36402.35
451.57	35730.62
451.76	35779.77
451.94	35585.50
452.13	35269.53
452.31	33701.37
452.49	32109.81
452.68	32446.85
452.86	32671.54
453.05	32879.85
453.23	34174.16
453.42	34672.70
453.60	35526.99
453.78	35999.78
453.97	35475.50
454.15	35505.93
454.34	34904.41
454.52	34817.81
454.70	34321.62
454.89	34370.77
455.07	34473.75
455.26	35276.55
455.44	36596.62
455.62	37158.34
455.81	37504.74
455.99	36966.42
456.17	36577.89
456.36	37015.57
456.54	37752.84
456.73	37675.60
456.91	38670.33
457.09	38534.58
457.28	39166.52
457.46	38057.11
457.64	37261.33
457.83	36397.67
458.01	35573.80
458.19	36669.17
458.38	36835.35
458.56	37853.48
458.74	38099.24
458.93	36645.77
459.11	37284.73
459.29	36699.60
459.48	37081.11
459.66	36746.41
459.84	37455.59
460.03	37516.45
460.21	37195.79
460.39	38195.20
460.57	38450.32
460.76	39016.73
460.94	38761.61
461.12	38450.32
461.31	38916.09
461.49	38806.08
461.67	38389.47
461.85	39658.04
462.04	39131.42
462.22	39882.73
462.40	39344.41
462.59	39108.01
462.77	39615.91
462.95	39388.88
463.13	39070.56
463.32	38333.29
463.50	38291.16
463.68	38602.46
463.86	38206.90
464.05	37993.92
464.23	36980.46
464.41	37242.60
464.59	36395.33
464.78	38705.44
464.96	38141.37
465.14	37750.50
465.32	38630.54
465.50	39746.98
465.69	39435.69
465.87	39220.36
466.05	38197.54
466.23	36175.32
466.41	35531.67
466.60	36582.57
466.78	36547.47
466.96	37343.25
467.14	37954.13
467.32	38810.76
467.51	38639.90
467.69	36708.96
467.87	37654.54
468.05	38480.75
468.23	38330.95
468.41	38066.47
468.60	38675.01
468.78	38733.53
468.96	37996.26
469.14	38646.93
469.32	38876.30
469.50	37392.40
469.69	37469.64
469.87	37160.69
470.05	36966.42
470.23	36924.29
470.41	37165.37
470.59	37460.27
470.77	37949.45
470.95	38342.66
471.14	39040.14
471.32	39260.15
471.50	41024.91
471.68	41106.83
471.86	41984.53
472.04	41610.04
472.22	42014.96
472.40	39552.71
472.58	39599.52
472.77	39335.04
472.95	40009.12
473.13	41125.55
473.31	39763.36
473.49	40105.08
473.67	41127.89
473.85	41228.54
474.03	41986.87
474.21	41993.89
474.39	42803.72
474.57	42808.40
474.75	43077.56
474.93	42387.10
475.12	41247.26
475.30	41773.88
475.48	41930.70
475.66	42415.19
475.84	41886.23
476.02	41986.87
476.20	41151.30
476.38	41511.74
476.56	43040.11
476.74	43227.35
476.92	43828.87
477.10	44315.70
477.28	45607.68
477.46	45319.79
477.64	45930.67
477.82	45801.94
478.00	45965.78
478.18	45343.20
478.36	45064.67
478.54	45223.83
478.72	45612.36
478.90	46480.70
479.08	47456.70
479.26	48076.94
479.44	48069.92
479.62	47536.28
479.80	47681.39
479.98	48198.65
480.16	48156.52
480.34	47842.89
480.52	48336.74
480.70	48589.52
480.88	48416.32
481.06	49289.34
481.24	49406.37
481.41	50197.47
481.59	50557.91
481.77	50237.26
481.95	50134.28
482.13	49654.47
482.31	49659.15
482.49	50658.56
482.67	50267.69
482.85	50527.48
483.03	51023.68
483.21	51374.76
483.39	51283.48
483.57	50445.57
483.74	50607.06
483.92	50597.70
484.10	50848.14
484.28	51842.87
484.46	51831.16
484.64	52451.41
484.82	51531.57
485.00	51295.18
485.18	50333.22
485.35	49457.86
485.53	46490.06
485.71	42899.68
485.89	41752.82
486.07	44210.38
486.25	47157.11
486.43	49457.86
486.61	50380.03
486.78	50279.39
486.96	50387.05
487.14	51971.60
487.32	52486.51
487.50	53333.79
487.68	53886.15
487.85	54548.53
488.03	54415.11
488.21	54255.96
488.39	53502.31
488.57	53104.41
488.75	52861.00
488.92	53682.53
489.10	55337.29
489.28	56622.24
489.46	57277.59
489.64	57055.24
489.81	57343.12
489.99	56952.26
490.17	57209.71
490.35	57223.76
490.53	56868.00
490.70	56491.17
490.88	56413.93
491.06	57408.66
491.24	57387.60
491.41	56442.02
491.59	55000.25
491.77	54251.28
491.95	55267.07
492.13	56142.43
492.30	57392.28
492.48	58035.92
492.66	58405.73
492.84	58616.38
493.01	58291.04
493.19	57670.80
493.37	57586.54
493.54	57357.17
493.72	57773.78
493.90	58724.04
494.08	59482.37
494.25	59742.17
494.43	59721.11
494.61	60193.90
494.79	60355.39
494.96	60086.23
495.14	59309.18
495.32	58925.33
495.49	58148.27
495.67	59175.76
495.85	60135.38
496.02	60523.91
496.20	60530.93
496.38	60083.89
496.55	59777.28
496.73	60196.24
496.91	60395.18
497.09	60956.91
497.26	61099.68
497.44	60659.66
497.62	60306.24
497.79	59358.33
497.97	58548.50
498.14	58595.31
498.32	59552.59
498.50	60296.88
498.67	60905.42
498.85	60739.24
499.03	60851.59
499.20	61097.34
499.38	60954.57
499.56	60825.84
499.73	60645.62
499.91	60104.96
500.08	59821.75
500.26	59227.26
500.44	59716.43
500.61	60147.09
500.79	59927.08
500.97	59501.10
501.14	59496.42
501.32	59332.58
501.49	59407.48
501.67	59552.59
501.84	59934.10
502.02	60245.39
502.20	60739.24
502.37	60823.50
502.55	60802.44
502.72	61315.01
502.90	61759.72
503.07	61305.65
503.25	61015.43
503.43	60385.82
503.60	59854.52
503.78	59206.19
503.95	59444.93
504.13	60832.86
504.30	61661.41
504.48	61441.40
504.65	60903.08
504.83	61099.68
505.01	61446.08
505.18	61975.05
505.36	62560.18
505.53	62553.16
505.71	62614.01
505.88	62859.77
506.06	62148.24
506.23	61881.42
506.41	61525.66
506.58	61649.71
506.76	61673.12
506.93	61731.63
507.11	61511.62
507.28	61605.24
507.46	61226.07
507.63	60589.45
507.81	60493.49
507.98	60795.42
508.16	61141.81
508.33	61986.75
508.50	62230.16
508.68	62382.30
508.85	62756.78
509.03	62890.19
509.20	62724.02
509.38	62080.37
509.55	61389.91
509.73	61577.15
509.90	62045.26
510.08	62078.03
510.25	61993.77
510.42	61949.30
510.60	61825.25
510.77	62082.71
510.95	62518.05
511.12	62595.29
511.30	63049.35
511.47	63194.46
511.64	63166.38
511.82	62756.78
511.99	62085.05
512.17	61808.87
512.34	61331.40
512.51	61570.13
512.69	61771.42
512.86	61792.48
513.04	62096.75
513.21	62363.57
513.38	61811.21
513.56	61340.76
513.73	60842.23
513.90	61263.52
514.08	61069.26
514.25	61736.31
514.43	61708.22
514.60	61656.73
514.77	61874.40
514.95	61895.47
515.12	61687.16
515.29	61799.50
515.47	62454.86
515.64	62698.27
515.81	62354.21
515.99	61904.83
516.16	60535.62
516.33	58485.31
516.51	57125.46
516.68	56577.77
516.85	56140.09
517.03	56526.28
517.20	58951.07
517.37	61092.66
517.54	62003.13
517.72	61499.92
517.89	59496.42
518.06	57188.65
518.24	57343.12
518.41	59744.51
518.58	60552.00
518.75	60828.18
518.93	61202.67
519.10	60985.00
519.27	61385.23
519.45	61537.36
519.62	62169.31
519.79	62522.73
519.96	62344.85
520.14	61799.50
520.31	61139.47
520.48	61050.53
520.65	61572.47
520.83	62164.63
521.00	62709.97
521.17	62316.76
521.34	61935.26
521.52	62220.80
521.69	62691.25
521.86	63114.89
522.03	62871.47
522.20	61677.80
522.38	60729.88
522.55	60640.94
522.72	61350.12
522.89	61647.37
523.07	61797.16
523.24	61918.87
523.41	62672.52
523.58	63037.65
523.75	63238.93
523.92	63121.91
524.10	63222.55
524.27	63061.05
524.44	63035.31
524.61	62808.28
524.78	62756.78
524.96	62557.84
525.13	62529.75
525.30	62883.17
525.47	63405.11
525.64	63063.39
525.81	62482.94
525.98	61190.97
526.16	59990.27
526.33	59374.71
526.50	59035.33
526.67	58922.99
526.84	59325.56
527.01	60303.90
527.18	60865.63
527.36	61621.62
527.53	62403.36
527.70	62663.16
527.87	62321.44
528.04	61698.86
528.21	62026.54
528.38	62761.47
528.55	63217.87
528.72	63484.69
528.89	63875.56
529.07	63587.67
529.24	62944.03
529.41	62344.85
529.58	61818.23
529.75	61829.93
529.92	62204.42
530.09	62693.59
530.26	63178.08
530.43	63524.48
530.60	63494.05
530.77	63693.00
530.94	63678.96
531.11	63400.43
531.28	62845.72
531.46	62665.50
531.63	63007.22
531.80	62852.75
531.97	62485.28
532.14	61804.19
532.31	60905.42
532.48	60123.68
532.65	60238.37
532.82	60975.64
532.99	62063.99
533.16	62548.48
533.33	62932.32
533.50	62726.36
533.67	61984.41
533.84	61691.84
534.01	62068.67
534.18	61982.07
534.35	62361.23
534.52	62019.52
534.69	62513.37
534.86	62522.73
535.03	62803.59
535.20	63304.47
535.37	63587.67
535.54	63742.15
535.71	63344.26
535.88	62965.09
536.05	62419.75
536.22	62099.09
536.38	61820.57
536.55	61682.48
536.72	60837.54
536.89	60781.37
537.06	61886.10
537.23	62384.64
537.40	62679.55
537.57	62625.71
537.74	62344.85
537.91	62358.89
538.08	62129.52
538.25	62408.04
538.42	62632.74
538.59	62569.54
538.75	61846.32
538.92	61443.74
539.09	61535.02
539.26	61410.98
539.43	61216.71
539.60	61064.58
539.77	61586.52
539.94	61333.74
540.11	60762.65
540.28	60217.30
540.44	60119.00
540.61	60353.05
540.78	60718.18
540.95	61059.90
541.12	61467.15
541.29	61623.96
541.46	61755.03
541.62	62066.33
541.79	61902.49
541.96	61179.26
542.13	61240.12
542.30	61441.40
542.47	61722.27
542.63	61441.40
542.80	61303.31
542.97	61418.00
543.14	61109.05
543.31	61249.48
543.48	61607.58
543.64	62457.20
543.81	62724.02
543.98	62550.82
544.15	61881.42
544.32	61366.51
544.48	61394.59
544.65	62047.60
544.82	62136.54
544.99	61792.48
545.16	61698.86
545.32	61216.71
545.49	62026.54
545.66	62412.73
545.83	62017.17
546.00	61848.66
546.16	61322.04
546.33	61268.20
546.50	61668.44
546.67	62042.92
546.83	61432.04
547.00	61560.77
547.17	60832.86
547.34	60577.75
547.50	60240.71
547.67	60825.84
547.84	60842.23
548.00	61176.92
548.17	61654.39
548.34	61549.07
548.51	61434.38
548.67	61656.73
548.84	61722.27
549.01	61441.40
549.18	61518.64
549.34	61410.98
549.51	61359.48
549.68	61298.63
549.84	61029.47
550.01	61024.79
550.18	60891.38
550.34	61022.45
550.51	61167.56
550.68	61031.81
550.84	60554.34
551.01	60764.99
551.18	60786.05
551.34	60999.04
551.51	61174.58
551.68	61656.73
551.84	61535.02
552.01	61338.42
552.18	61296.29
552.34	60582.43
552.51	60346.03
552.68	60186.88
552.84	60769.67
553.01	60910.10
553.18	60664.35
553.34	60666.69
553.51	60985.00
553.67	61265.86
553.84	61331.40
554.01	61127.77
554.17	60851.59
554.34	61045.85
554.51	61223.73
554.67	61537.36
554.84	61183.94
555.00	60865.63
555.17	60694.77
555.33	60828.18
555.50	60919.46
555.67	60741.58
555.83	60687.75
556.00	60505.19
556.16	60280.50
556.33	60037.08
556.50	59915.37
556.66	59875.58
556.83	59606.42
556.99	59798.35
557.16	59777.28
557.32	59884.95
557.49	60458.38
557.65	60275.82
557.82	60327.31
557.98	60107.30
558.15	59723.45
558.32	59061.08
558.48	58284.02
558.65	58330.83
558.81	58686.59
558.98	59075.12
559.14	59185.13
559.31	59051.72
559.47	59320.88
559.64	59070.44
559.80	58564.88
559.97	58873.84
560.13	59032.99
560.30	59990.27
560.46	60322.63
560.63	60512.21
560.79	60657.32
560.96	60261.77
561.12	59344.28
561.29	58543.82
561.45	58590.63
561.61	58962.78
561.78	59255.34
561.94	59288.11
562.11	59227.26
562.27	59297.47
562.44	59444.93
562.60	59732.81
562.77	59896.65
562.93	59489.40
563.10	59625.15
563.26	59086.82
563.42	59143.00
563.59	59004.91
563.75	59107.89
563.92	59056.40
564.08	58986.18
564.24	59363.01
564.41	59278.75
564.57	59063.42
564.74	59175.76
564.90	58906.60
565.07	58773.19
565.23	58260.62
565.39	58010.18
565.56	57794.85
565.72	57563.14
565.88	57897.83
566.05	58143.59
566.21	58258.27
566.38	58372.96
566.54	58394.03
566.70	58553.18
566.87	59009.59
567.03	58878.52
567.19	59182.79
567.36	59028.31
567.52	58749.79
567.68	58387.00
567.85	57911.88
568.01	57619.31
568.17	57509.30
568.34	57275.25
568.50	57382.91
568.66	57623.99
568.83	57862.72
568.99	57897.83
569.15	58113.16
569.32	57890.81
569.48	57609.95
569.64	57434.41
569.81	57240.14
569.97	57277.59
570.13	57155.88
570.30	56697.14
570.46	56261.80
570.62	56013.70
570.78	55845.18
570.95	56137.75
571.11	56804.80
571.27	56800.12
571.43	57118.43
571.60	57368.87
571.76	57483.56
571.92	57923.58
572.09	58138.91
572.25	57832.30
572.41	57939.96
572.57	57750.38
572.74	57661.44
572.90	57366.53
573.06	57277.59
573.22	57396.96
573.38	57448.45
573.55	57469.51
573.71	57483.56
573.87	57528.03
574.03	57080.98
574.20	57216.74
574.36	56884.38
574.52	56622.24
574.68	56554.36
574.84	56294.56
575.01	55662.62
575.17	55784.33
575.33	56100.30
575.49	56463.08
575.65	56537.98
575.82	56301.59
575.98	56016.04
576.14	56306.27
576.30	56435.00
576.46	56776.72
576.62	56615.22
576.79	56582.45
576.95	56266.48
577.11	56219.67
577.27	56360.10
577.43	56547.34
577.59	56041.79
577.75	55671.98
577.92	55100.89
578.08	54864.50
578.24	54958.12
578.40	55288.13
578.56	55533.89
578.72	55529.21
578.88	55753.90
579.04	55796.03
579.21	55945.83
579.37	56090.94
579.53	56191.58
579.69	56090.94
579.85	56210.31
580.01	55906.04
580.17	55470.70
580.33	55569.00
580.49	55547.93
580.65	55632.19
580.82	55894.33
580.98	56046.47
581.14	55929.44
581.30	55906.04
581.46	55817.10
581.62	55683.69
581.78	56044.13
581.94	56065.19
582.10	56074.55
582.26	56079.24
582.42	55969.23
582.58	56086.26
582.74	56126.05
582.90	56163.50
583.06	56039.45
583.22	55828.80
583.38	55707.09
583.54	55576.02
583.70	55566.66
583.86	55948.17
584.02	55494.10
584.18	55868.59
584.34	55599.43
584.50	55526.87
584.66	55540.91
584.82	55089.19
584.98	55084.51
585.14	54742.79
585.30	54258.30
585.46	53977.43
585.62	53787.85
585.78	54167.02
585.94	54096.80
586.10	54564.91
586.26	54403.41
586.42	54733.43
586.58	55107.91
586.74	54880.88
586.90	54897.27
587.06	54801.30
587.22	54649.17
587.38	54504.06
587.54	54412.77
587.70	54288.73
587.86	53780.83
588.02	53338.47
588.18	53364.21
588.34	52626.95
588.49	50787.28
588.65	48884.43
588.81	48161.20
588.97	48837.62
589.13	48343.77
589.29	48144.82
589.45	49216.78
589.61	50424.50
589.77	51412.21
589.93	52044.15
590.08	52891.43
590.24	53169.95
590.40	53148.88
590.56	53181.65
590.72	52959.30
590.88	52638.65
591.04	52336.72
591.20	52292.25
591.35	52385.87
591.51	52444.38
591.67	52137.77
591.83	52519.28
591.99	52474.81
592.15	52439.70
592.31	52884.40
592.46	52519.28
592.62	52577.79
592.78	52266.50
592.94	52273.52
593.10	52467.79
593.26	52711.20
593.41	52687.80
593.57	52800.15
593.73	52137.77
593.89	52172.88
594.05	51772.65
594.20	51580.73
594.36	50939.42
594.52	50974.53
594.68	51002.61
594.84	51096.24
594.99	51718.82
595.15	51660.30
595.31	51819.46
595.47	51604.13
595.62	52093.30
595.78	52074.58
595.94	52250.12
596.10	52343.74
596.25	51718.82
596.41	51634.56
596.57	51608.81
596.73	51929.47
596.88	51744.56
597.04	51938.83
597.20	51620.52
597.36	51372.42
597.51	51386.46
597.67	51693.07
597.83	51522.21
597.99	50972.19
598.14	50742.81
598.30	50857.50
598.46	50887.93
598.61	50838.78
598.77	50932.40
598.93	50749.84
599.09	51711.80
599.24	51192.20
599.40	51353.69
599.56	51292.84
599.71	51194.54
599.87	51253.05
600.03	51171.13
600.18	50733.45
600.34	50492.38
600.50	50468.97
600.65	50092.15
600.81	50597.70
600.97	50632.81
601.12	50162.36
601.28	50424.50
601.44	50014.91
601.59	50138.96
601.75	49422.75
601.91	49668.51
602.06	49720.00
602.22	50064.06
602.37	49724.68
602.53	50075.76
602.69	50532.17
602.84	50504.08
603.00	51007.29
603.16	50951.12
603.31	50981.55
603.47	50808.35
603.62	50586.00
603.78	50459.61
603.94	50454.93
604.09	50440.89
604.25	50330.88
604.40	50211.51
604.56	50169.38
604.71	50698.34
604.87	50466.63
605.03	50094.49
605.18	49806.60
605.34	49787.88
605.49	49326.79
605.65	49762.13
605.80	49858.09
605.96	49724.68
606.12	49331.47
606.27	49226.15
606.43	49050.61
606.58	49544.46
606.74	49563.18
606.89	49535.10
607.05	49741.06
607.20	49535.10
607.36	48940.60
607.51	49151.25
607.67	48650.38
607.82	48561.44
607.98	48680.80
608.13	48376.53
608.29	48273.55
608.44	48268.87
608.60	47983.32
608.75	48165.88
608.91	48423.34
609.06	47950.56
609.22	48575.48
609.37	48296.95
609.53	48374.19
609.68	48273.55
609.84	46876.25
609.99	46646.88
610.15	47229.67
610.30	47215.63
610.46	47606.50
610.61	48175.25
610.76	48273.55
610.92	48142.48
611.07	48392.92
611.23	48610.59
611.38	48266.53
611.54	47529.26
611.69	47313.93
611.84	46590.70
612.00	46312.18
612.15	46618.79
612.31	46415.16
612.46	46476.02
612.62	46848.16
612.77	46808.37
612.92	47145.41
613.08	46614.11
613.23	45818.33
613.39	44910.20
613.54	44814.24
613.69	45174.68
613.85	45111.49
614.00	45333.84
614.15	46082.81
614.31	45965.78
614.46	45731.73
614.62	45813.65
614.77	45954.08
614.92	45930.67
615.08	45738.75
615.23	45792.58
615.38	45509.38
615.54	44458.48
615.69	43302.25
615.84	42646.90
616.00	42724.14
616.15	43040.11
616.30	43365.45
616.46	43323.32
616.61	43653.33
616.76	43131.39
616.92	43849.94
617.07	43964.62
617.22	44582.52
617.37	44198.68
617.53	44767.43
617.68	44830.62
617.83	44734.66
617.99	44931.26
618.14	45088.08
618.29	44842.32
618.45	44591.89
618.60	44034.84
618.75	43234.38
618.90	43152.46
619.06	43704.82
619.21	44175.27
619.36	44762.75
619.51	43597.16
619.67	43613.54
619.82	44369.54
619.97	44238.47
620.12	43756.32
620.28	43653.33
620.43	44226.76
620.58	43777.38
620.73	44069.95
620.89	43466.09
621.04	43274.16
621.19	43112.67
621.34	43229.69
621.49	42923.08
621.65	42314.55
621.80	42632.86
621.95	42258.37
622.10	42962.87
622.25	42167.09
622.41	42356.67
622.56	42000.91
622.71	41511.74
622.86	41207.47
623.01	41420.46
623.16	42000.91
623.32	41734.09
623.47	41727.07
623.62	41287.05
623.77	41050.66
623.92	41315.14
624.07	40659.79
624.23	40339.13
624.38	40156.57
624.53	40177.64
624.68	40484.25
624.83	40486.59
624.98	40229.13
625.13	39768.04
625.29	39634.63
625.44	40102.74
625.59	39725.91
625.74	39922.52
625.89	40076.99
626.04	39805.49
626.19	39899.11
626.34	40446.80
626.49	40081.67
626.65	39920.18
626.80	40191.68
626.95	39573.78
627.10	39695.49
627.25	38628.20
627.40	37855.82
627.55	37006.21
627.70	36589.59
627.85	36800.24
628.00	37404.10
628.15	38361.38
628.30	38609.48
628.45	38242.01
628.60	38424.57
628.76	37982.21
628.91	38160.09
629.06	37750.50
629.21	37551.56
629.36	37537.51
629.51	37549.21
629.66	37345.59
629.81	36994.51
629.96	37113.87
630.11	37319.84
630.26	38101.58
630.41	37645.18
630.56	37371.33
630.71	37488.36
630.86	37605.39
631.01	37048.34
631.16	36896.20
631.31	36233.83
631.46	36158.94
631.61	36402.35
631.76	36662.15
631.91	37139.62
632.06	37001.53
632.21	37633.47
632.36	37535.17
632.51	37305.80
632.66	37394.74
632.81	37132.60
632.96	37446.23
633.10	36959.40
633.25	36655.13
633.40	36385.97
633.55	36400.01
633.70	36196.38
633.85	36404.69
634.00	36596.62
634.15	36421.08
634.30	36245.54
634.45	36774.50
634.60	36715.98
634.75	36596.62
634.90	36355.54
635.05	36477.25
635.19	36018.50
635.34	36374.27
635.49	36165.96
635.64	35438.05
635.79	35412.31
635.94	35243.79
636.09	35751.68
636.24	35660.40
636.39	36030.21
636.53	35920.20
636.68	35868.71
636.83	35639.34
636.98	36503.00
637.13	35981.06
637.28	36563.85
637.43	36411.71
637.57	36013.82
637.72	35934.24
637.87	35445.07
638.02	35999.78
638.17	35871.05
638.32	35622.95
638.46	36189.36
638.61	35866.37
638.76	35063.57
638.91	34866.96
639.06	34850.58
639.20	34834.19
639.35	34796.74
639.50	34983.99
639.65	34387.15
639.80	34340.34
639.94	34562.69
640.09	34792.06
640.24	34801.43
640.39	34602.48
640.54	33954.15
640.68	34146.08
640.83	33640.52
640.98	33284.76
641.13	33457.96
641.27	34089.90
641.42	33811.38
641.57	33479.02
641.72	33464.98
641.86	33518.81
642.01	33390.08
642.16	34333.32
642.31	34103.95
642.45	34225.65
642.60	33486.04
642.75	33502.43
642.90	33378.38
643.04	33364.34
643.19	33343.27
643.34	33003.89
643.48	32479.61
643.63	33076.45
643.78	32952.40
643.93	33322.21
644.07	33556.26
644.22	34078.20
644.37	33530.51
644.51	33354.97
644.66	32627.07
644.81	32439.82
644.95	32788.56
645.10	32240.88
645.25	32044.27
645.39	32023.21
645.54	31817.24
645.69	31732.98
645.83	31192.32
645.98	31049.55
646.13	31648.72
646.27	31435.74
646.42	31239.13
646.57	31194.66
646.71	31292.96
646.86	31288.28
647.00	31187.64
647.15	30693.79
647.30	30724.21
647.44	30366.11
647.59	30829.54
647.74	30433.99
647.88	30415.26
648.03	30501.86
648.17	30387.18
648.32	30611.87
648.47	31051.89
648.61	30677.40
648.76	30291.21
648.90	30043.12
649.05	29373.72
649.20	28561.56
649.34	28374.31
649.49	28776.89
649.63	28804.97
649.78	29596.07
649.92	30052.48
650.07	30649.32
650.21	30565.06
650.36	30852.94
650.51	30558.03
650.65	30822.51
650.80	30560.37
650.94	30089.93
651.09	30054.82
651.23	29057.75
651.38	28910.30
651.52	28861.15
651.67	29156.05
651.81	29207.55
651.96	29727.14
652.10	29326.91
652.25	29970.56
652.39	30068.86
652.54	29759.91
652.68	29780.98
652.83	29851.19
652.97	29500.11
653.12	29652.25
653.26	29626.50
653.41	30022.05
653.55	29656.93
653.70	29855.87
653.84	29724.80
653.99	29055.41
654.13	28774.55
654.27	28755.82
654.42	28098.13
654.56	28123.88
654.71	28112.17
654.85	27971.74
655.00	27618.32
655.14	27047.23
655.29	26852.97
655.43	26761.69
655.57	25741.21
655.72	23946.02
655.86	22113.38
656.01	20978.22
656.15	21254.40
656.30	22347.44
656.44	23723.67
656.58	24428.17
656.73	25390.13
656.87	25848.88
657.01	26106.34
657.16	26871.69
657.30	27225.11
657.45	27538.74
657.59	27915.57
657.73	27632.36
657.88	27674.49
658.02	28002.17
658.16	27599.60
658.31	27552.79
658.45	27592.58
658.60	27510.66
658.74	27072.98
658.88	26991.06
659.03	26792.11
659.17	26965.31
659.31	26948.93
659.46	27037.87
659.60	27187.66
659.74	27248.52
659.89	27005.10
660.03	27534.06
660.17	27449.80
660.32	27227.45
660.46	27529.38
660.60	26995.74
660.74	27180.64
660.89	26888.07
661.03	26583.80
661.17	26857.65
661.32	27201.71
661.46	26923.18
661.60	26958.29
661.74	27065.96
661.89	26899.78
662.03	27040.21
662.17	26560.40
662.31	26693.81
662.46	26932.54
662.60	26529.97
662.74	26455.08
662.88	26038.46
663.03	25860.58
663.17	25675.68
663.31	25589.08
663.45	25771.64
663.60	26015.05
663.74	25715.47
663.88	25663.97
664.02	25523.54
664.17	25432.26
664.31	25422.90
664.45	25432.26
664.59	25790.36
664.73	25736.53
664.88	25715.47
665.02	25467.37
665.16	25783.34
665.30	25823.13
665.44	25535.24
665.59	25207.57
665.73	25256.72
665.87	24250.29
666.01	24737.12
666.15	24889.26
666.29	24292.42
666.44	24652.86
666.58	24833.08
666.72	24828.40
666.86	24755.85
667.00	24816.70
667.14	24884.58
667.28	24477.32
667.43	24554.56
667.57	24201.14
667.71	24350.93
667.85	24065.39
667.99	24151.99
668.13	23807.93
668.27	24388.38
668.41	23953.04
668.56	23946.02
668.70	23791.55
668.84	24151.99
668.98	23953.04
669.12	23941.34
669.26	23861.76
669.40	23931.98
669.54	23515.36
669.68	23220.45
669.82	23431.10
669.96	23349.18
670.10	23089.38
670.25	23035.55
670.39	23035.55
670.53	23009.81
670.67	22750.01
670.81	22895.12
670.95	22918.53
671.09	22745.33
671.23	22796.82
671.37	22272.54
671.51	22450.42
671.65	22441.06
671.79	22476.16
671.93	22317.01
672.07	22490.21
672.21	22405.95
672.35	22108.70
672.49	22195.30
672.63	22438.72
672.77	22094.66
672.91	22031.46
673.05	21888.69
673.19	21879.33
673.33	21963.59
673.47	21827.84
673.61	21701.45
673.75	21626.55
673.89	21563.36
674.03	22003.38
674.17	21649.96
674.31	21626.55
674.45	21303.56
674.59	21392.50
674.73	21102.27
674.87	21041.42
675.01	20879.92
675.15	20781.62
675.29	20945.45
675.43	20720.76
675.56	20964.18
675.70	20950.14
675.84	21188.87
675.98	20432.88
676.12	20720.76
676.26	20776.94
676.40	20596.71
676.54	20610.76
676.68	20458.62
676.82	19985.83
676.96	20437.56
677.10	20348.62
677.23	20173.08
677.37	19927.32
677.51	20116.90
677.65	20039.67
677.79	19791.57
677.93	19756.46
678.07	19805.61
678.21	19204.10
678.34	19321.12
678.48	19152.60
678.62	19054.30
678.76	19335.17
678.90	19286.01
679.04	19194.73
679.18	18948.98
679.31	18956.00
679.45	18911.53
679.59	18586.19
679.73	18860.04
679.87	18927.91
680.00	18705.56
680.14	18387.25
680.28	18523.00
680.42	18345.12
680.56	18338.10
680.70	18202.35
680.83	17963.61
680.97	17825.52
681.11	18071.28
681.25	18012.76
681.39	18047.87
681.52	17914.46
681.66	17788.07
681.80	17493.16
681.94	17806.80
682.07	17895.74
682.21	17696.79
682.35	17479.12
682.49	17336.35
682.62	16975.91
682.76	17205.28
682.90	17006.33
683.04	17060.16
683.17	17078.89
683.31	16702.06
683.45	17240.39
683.59	16599.08
683.72	16456.31
683.86	16116.93
684.00	16126.29
684.13	15964.79
684.27	16194.17
684.41	16180.12
684.55	16294.81
684.68	16224.59
684.82	16187.14
684.96	16184.80
685.09	15873.51
685.23	15709.68
685.37	15779.89
685.50	15585.63
685.64	15438.17
685.78	15323.49
685.91	15290.72
686.05	15419.45
686.19	15091.77
686.32	14146.20
686.46	12631.87
686.60	10920.94
686.73	10298.36
686.87	9584.49
687.01	9666.41
687.14	9652.37
687.28	9902.81
687.42	10539.43
687.55	10857.75
687.69	11688.64
687.82	12343.99
687.96	12554.63
688.10	12571.02
688.23	12299.52
688.37	11964.82
688.50	11648.85
688.64	12133.34
688.78	11501.39
688.91	11641.82
689.05	11695.66
689.18	11646.51
689.32	11683.95
689.46	11583.31
689.59	11758.85
689.73	11740.13
689.86	11728.42
690.00	11749.49
690.13	11831.41
690.27	11829.07
690.41	11962.48
690.54	12030.35
690.68	11946.09
690.81	12035.03
690.95	11903.96
691.08	12140.36
691.22	11974.18
691.35	11822.05
691.49	12023.33
691.62	11997.59
691.76	12049.08
691.89	11978.86
692.03	11903.96
692.16	11786.94
692.30	11829.07
692.43	11733.11
692.57	11761.19
692.70	11370.32
692.84	11293.08
692.97	11269.68
693.11	11281.38
693.24	11297.77
693.38	11283.72
693.51	11070.73
693.65	11147.97
693.78	11068.39
693.92	10698.59
694.05	10778.17
694.19	10768.80
694.32	10733.70
694.45	10782.85
694.59	10801.57
694.72	10824.98
694.86	10832.00
694.99	10874.13
695.13	10637.73
695.26	10726.68
695.39	10267.93
695.53	10218.78
695.66	10293.68
695.80	10403.68
695.93	10441.13
696.07	10441.13
696.20	10455.17
696.33	10836.68
696.47	10883.49
696.60	10691.57
696.73	10670.50
696.87	10768.80
697.00	10698.59
697.14	10771.15
697.27	10300.70
697.40	10207.08
697.54	10087.71
697.67	10125.16
697.80	9785.78
697.94	9823.23
698.07	9872.38
698.21	9827.91
698.34	9715.56
698.47	9537.68
698.61	9408.95
698.74	9481.51
698.87	9366.82
699.01	9205.33
699.14	9329.38
699.27	9364.48
699.40	9577.47
699.54	9350.44
699.67	9163.20
699.80	9130.43
699.94	9221.71
700.07	9062.55
700.20	8903.40
700.34	8723.18
700.47	8601.47
700.60	8512.53
700.73	8769.99
700.87	8667.00
701.00	8638.92
701.13	8533.59
701.26	8636.58
701.40	8318.26
701.53	8259.75
701.66	8472.74
701.79	8444.65
701.93	8320.60
702.06	8257.41
702.19	8276.13
702.32	8250.39
702.46	8070.17
702.59	8107.62
702.72	8325.29
702.85	8095.91
702.99	8189.53
703.12	8297.20
703.25	8201.24
703.38	8259.75
703.51	7920.37
703.65	7920.37
703.78	7840.79
703.91	7932.08
704.04	8065.49
704.17	7971.86
704.31	7786.96
704.44	7873.56
704.57	7906.33
704.70	7927.39
704.83	7660.57
704.96	7648.87
705.10	7791.64
705.23	7508.44
>>>>>End Processed Spectral Data<<<<<
