SpectraSuite Data File
++++++++++++++++++++++++++++++++++++
Date: Mon Oct 07 14:54:03 GMT-05:00 2013
User: price-jones
Dark Spectrum Present: No
Reference Spectrum Present: No
Number of Sampled Component Spectra: 1
Spectrometers: USB2+H05261
Integration Time (usec): 100000 (USB2+H05261)
Spectra Averaged: 1 (USB2+H05261)
Boxcar Smoothing: 0 (USB2+H05261)
Correct for Electrical Dark: No (USB2+H05261)
Strobe/Lamp Enabled: No (USB2+H05261)
Correct for Detector Non-linearity: No (USB2+H05261)
Correct for Stray Light: No (USB2+H05261)
Number of Pixels in Processed Spectrum: 2048
>>>>>Begin Processed Spectral Data<<<<<
365.73	0.00
365.92	0.00
366.12	0.00
366.32	0.00
366.52	0.00
366.72	0.00
366.91	0.00
367.11	0.00
367.31	0.00
367.51	0.00
367.70	0.00
367.90	0.00
368.10	0.00
368.30	0.00
368.49	0.00
368.69	0.00
368.89	0.00
369.09	0.00
369.28	0.00
369.48	0.00
369.68	0.00
369.87	0.00
370.07	0.00
370.27	0.00
370.47	662.37
370.66	3318.88
370.86	3913.38
371.06	4152.11
371.25	4238.71
371.45	3824.44
371.65	3393.78
371.84	3248.66
372.04	3527.19
372.24	3896.99
372.44	4170.83
372.63	3908.69
372.83	3569.32
373.03	3447.61
373.22	2988.86
373.42	3080.14
373.62	3536.55
373.81	3899.33
374.01	3922.74
374.21	3536.55
374.40	3274.41
374.60	3461.65
374.79	3864.22
374.99	4381.48
375.19	4887.04
375.38	4863.63
375.58	4500.85
375.78	4669.37
375.97	4519.57
376.17	4737.24
376.37	4683.41
376.56	4858.95
376.76	5186.63
376.95	5235.78
377.15	5685.16
377.35	6031.56
377.54	6265.61
377.74	6410.73
377.93	6565.20
378.13	6392.00
378.33	5912.19
378.52	5551.75
378.72	5240.46
378.91	5181.95
379.11	5060.24
379.31	4908.10
379.50	4863.63
379.70	5256.84
379.89	5933.26
380.09	6171.99
380.28	6431.79
380.48	6326.47
380.68	6111.14
380.87	6104.12
381.07	5563.45
381.26	5170.24
381.46	4870.65
381.65	4538.30
381.85	4599.15
382.04	4257.43
382.24	3911.04
382.43	3929.76
382.63	3836.14
382.83	3784.65
383.02	3878.27
383.22	3749.54
383.41	3899.33
383.61	4241.05
383.80	4580.43
384.00	5277.91
384.19	5851.34
384.39	6310.08
384.58	6265.61
384.78	6349.87
384.97	6202.42
385.17	5741.33
385.36	5511.96
385.56	5081.30
385.75	5490.90
385.95	5912.19
386.14	6544.14
386.34	6569.88
386.53	6127.52
386.72	5743.67
386.92	5755.38
387.11	6272.64
387.31	6565.20
387.50	6300.72
387.70	6183.70
387.89	6155.61
388.09	6188.38
388.28	6038.58
388.48	6162.63
388.67	6630.74
388.86	7136.29
389.06	7742.49
389.25	8224.64
389.45	8524.23
389.64	8119.32
389.84	8236.35
390.03	8163.79
390.22	8138.04
390.42	8463.38
390.61	8833.18
390.81	9434.70
391.00	9544.70
391.19	9598.54
391.39	9275.54
391.58	8624.87
391.78	8133.36
391.97	7873.56
392.16	7309.49
392.36	6967.77
392.55	5256.84
392.75	4276.16
392.94	3585.70
393.13	3407.82
393.33	4086.58
393.52	5123.43
393.71	6487.96
393.91	7222.89
394.10	7957.82
394.29	8645.94
394.49	9364.48
394.68	9940.26
394.88	9961.32
395.07	10555.82
395.26	10317.08
395.46	10148.56
395.65	9521.30
395.84	8320.60
396.04	6953.73
396.23	5830.27
396.42	4770.01
396.62	4491.49
396.81	5284.93
397.00	6796.92
397.19	8486.78
397.39	10104.09
397.58	11138.61
397.77	12351.01
397.97	12444.63
398.16	12580.38
398.35	13261.48
398.55	13650.00
398.74	14178.97
398.93	14293.65
399.12	13951.93
399.32	13591.49
399.51	13996.40
399.70	14956.02
399.90	14677.50
400.09	14691.54
400.28	14567.49
400.47	14539.41
400.67	15543.50
400.86	15934.37
401.05	15747.12
401.24	15932.03
401.44	16418.86
401.63	16030.33
401.82	16180.12
402.01	16191.83
402.21	16189.49
402.40	16709.08
402.59	15932.03
402.78	15286.04
402.97	14600.26
403.17	15438.17
403.36	16358.00
403.55	16943.14
403.74	17085.91
403.93	16166.08
404.13	15440.51
404.32	15089.43
404.51	15470.94
404.70	16615.46
404.89	16685.68
405.09	16482.05
405.28	15964.79
405.47	16002.24
405.66	15969.48
405.85	15456.90
406.05	15014.54
406.24	15176.03
406.43	15913.30
406.62	16821.43
406.81	16840.15
407.00	15875.85
407.20	15510.73
407.39	15810.32
407.58	16322.90
407.77	17039.10
407.96	17642.96
408.15	17743.60
408.34	17666.36
408.54	19012.17
408.73	18967.70
408.92	18597.90
409.11	17790.41
409.30	17130.38
409.49	16222.25
409.68	14939.64
409.87	14647.07
410.07	15667.55
410.26	16783.98
410.45	17905.10
410.64	18113.41
410.83	18548.75
411.02	19520.07
411.21	20210.53
411.40	19964.77
411.59	19740.08
411.78	19779.87
411.98	19651.14
412.17	19978.81
412.36	19222.82
412.55	19496.66
412.74	19183.03
412.93	18637.69
413.12	18944.30
413.31	20491.39
413.50	20783.96
413.69	21266.11
413.88	20255.00
414.07	19592.62
414.26	20016.26
414.45	20594.37
414.64	20779.28
414.83	21135.04
415.02	20311.17
415.22	20552.24
415.41	20872.90
415.60	21406.54
415.79	22225.73
415.98	22623.62
416.17	22532.34
416.36	22274.88
416.55	22171.89
416.74	21212.28
416.93	20631.82
417.12	20690.34
417.31	21135.04
417.50	21303.56
417.69	21809.11
417.88	21764.64
418.07	21441.65
418.26	21076.52
418.45	21729.53
418.64	22408.29
418.83	23049.60
419.02	22661.07
419.21	22794.48
419.39	21443.99
419.58	20582.67
419.77	20470.33
419.96	21429.94
420.15	22504.25
420.34	23096.41
420.53	24313.48
420.72	24608.39
420.91	24159.01
421.10	23756.44
421.29	23653.45
421.48	23173.64
421.67	24175.39
421.86	23173.64
422.05	22087.64
422.24	19625.39
422.43	19379.64
422.61	21034.39
422.80	23213.43
422.99	23201.73
423.18	22766.39
423.37	21792.73
423.56	21900.39
423.75	22171.89
423.94	22609.58
424.13	21429.94
424.32	21886.35
424.50	21879.33
424.69	21734.21
424.88	21689.74
425.07	21474.42
425.26	21582.08
425.45	21628.89
425.64	20741.83
425.83	21071.84
426.01	22087.64
426.20	22703.20
426.39	22483.19
426.58	21081.21
426.77	19372.61
426.96	18764.07
427.15	19168.99
427.33	21010.99
427.52	21731.87
427.71	21774.00
427.90	21797.41
428.09	21507.18
428.28	21261.43
428.46	20205.84
428.65	19793.91
428.84	20369.68
429.03	20814.38
429.22	19892.21
429.40	18705.56
429.59	16666.95
429.78	15044.96
429.97	14934.96
430.16	15112.84
430.34	15428.81
430.53	15304.76
430.72	15234.55
430.91	17092.93
431.10	20009.24
431.28	23679.20
431.47	25848.88
431.66	26199.96
431.85	23487.28
432.03	21752.94
432.22	20643.52
432.41	21287.17
432.60	23737.71
432.79	25235.66
432.97	25277.79
433.16	25039.05
433.35	22707.88
433.54	20156.69
433.72	19131.54
433.91	19981.15
434.10	22136.79
434.28	23791.55
434.47	25254.38
434.66	24643.50
434.85	24254.97
435.03	23508.34
435.22	24126.24
435.41	25862.92
435.59	26122.72
435.78	26405.92
435.97	27274.26
436.16	27590.24
436.34	26878.71
436.53	26347.41
436.72	26511.25
436.90	24898.62
437.09	24765.21
437.28	24217.52
437.46	25310.55
437.65	24788.61
437.84	23517.70
438.02	21666.34
438.21	21338.66
438.40	22445.74
438.58	24383.70
438.77	25053.09
438.96	25469.71
439.14	26272.51
439.33	26658.70
439.52	27218.09
439.70	26988.72
439.89	26515.93
440.08	25617.16
440.26	25532.90
440.45	26576.78
440.63	28018.55
440.82	29500.11
441.01	29139.67
441.19	29078.82
441.38	28952.43
441.57	30426.96
441.75	30820.17
441.94	30925.50
442.12	30312.28
442.31	30618.89
442.50	31590.21
442.68	30581.44
442.87	30494.84
443.05	29879.28
443.24	30323.98
443.43	30677.40
443.61	31555.10
443.80	31889.80
443.98	30448.03
444.17	30272.49
444.35	31417.01
444.54	32514.72
444.73	32142.58
444.91	30455.05
445.10	29745.87
445.28	28266.65
445.47	27915.57
445.65	28140.26
445.84	28863.49
446.02	29914.39
446.21	30071.20
446.39	30270.15
446.58	30635.27
446.77	30897.41
446.95	31459.14
447.14	31878.10
447.32	33188.80
447.51	32093.43
447.69	31302.32
447.88	30541.65
448.06	30565.06
448.25	31901.50
448.43	32039.59
448.62	31215.72
448.80	30993.37
448.99	31367.86
449.17	31075.29
449.36	31569.15
449.54	32598.98
449.73	32954.74
449.91	33546.90
450.10	34307.57
450.28	35288.26
450.46	34773.34
450.65	34806.11
450.83	34466.73
451.02	33642.86
451.20	33338.59
451.39	33432.21
451.57	33390.08
451.76	32971.13
451.94	33022.62
452.13	32587.28
452.31	31295.30
452.49	29837.15
452.68	30213.98
452.86	30134.40
453.05	30305.26
453.23	31276.58
453.42	32243.22
453.60	33174.75
453.78	32931.34
453.97	33141.99
454.15	32718.35
454.34	31995.12
454.52	32151.94
454.70	31552.76
454.89	32023.21
455.07	31868.73
455.26	32488.98
455.44	33923.72
455.62	34199.91
455.81	34672.70
455.99	34003.30
456.17	33560.94
456.36	33748.18
456.54	35096.33
456.73	35082.29
456.91	35040.16
457.09	35814.88
457.28	36170.64
457.46	34813.13
457.64	34857.60
457.83	33603.07
458.01	32842.40
458.19	33699.03
458.38	33469.66
458.56	35005.05
458.74	34979.31
458.93	34480.77
459.11	33991.60
459.29	33684.99
459.48	33823.08
459.66	33715.42
459.84	34305.23
460.03	34637.59
460.21	34419.92
460.39	35468.48
460.57	35880.41
460.76	35779.77
460.94	35756.36
461.12	35201.66
461.31	35257.83
461.49	35374.86
461.67	35297.62
461.85	36350.86
462.04	36374.27
462.22	36748.75
462.40	36135.53
462.59	36418.74
462.77	36603.64
462.95	36290.01
463.13	35566.78
463.32	35428.69
463.50	35239.11
463.68	34733.55
463.86	35211.02
464.05	35143.14
464.23	34668.02
464.41	34005.64
464.59	33254.33
464.78	35381.88
464.96	34794.40
465.14	34426.94
465.32	35711.89
465.50	36376.61
465.69	36549.81
465.87	35908.50
466.05	35000.37
466.23	33284.76
466.41	32961.76
466.60	33593.71
466.78	33336.25
466.96	33905.00
467.14	34988.67
467.32	35445.07
467.51	35299.96
467.69	33469.66
467.87	34478.43
468.05	34960.58
468.23	34623.54
468.41	35145.48
468.60	35044.84
468.78	35613.59
468.96	34944.20
469.14	35917.86
469.32	35866.37
469.50	34597.80
469.69	34436.30
469.87	33741.16
470.05	34043.09
470.23	34019.69
470.41	33743.50
470.59	34361.40
470.77	34923.13
470.95	35512.95
471.14	35515.29
471.32	35704.87
471.50	37670.92
471.68	37881.57
471.86	38569.69
472.04	38232.65
472.22	38359.04
472.40	36378.95
472.58	36107.44
472.77	35653.38
472.95	36605.98
473.13	37469.64
473.31	36109.78
473.49	36844.71
473.67	37567.94
473.85	37324.52
474.03	38546.28
474.21	38307.55
474.39	39093.97
474.57	39077.58
474.75	38873.96
474.93	38473.73
475.12	37790.29
475.30	38209.25
475.48	38225.63
475.66	38225.63
475.84	38389.47
476.02	38061.79
476.20	37420.48
476.38	37998.60
476.56	39105.67
476.74	39435.69
476.92	39737.62
477.10	40561.48
477.28	41827.71
477.46	41752.82
477.64	41951.76
477.82	42279.44
478.00	42382.42
478.18	41598.34
478.36	41684.94
478.54	41368.97
478.72	41675.58
478.90	43077.56
479.08	43594.82
479.26	44350.81
479.44	43997.39
479.62	44170.59
479.80	43730.57
479.98	44062.93
480.16	44584.86
480.34	43405.23
480.52	44673.81
480.70	44596.57
480.88	44648.06
481.06	45453.20
481.24	45556.19
481.41	46791.99
481.59	47393.51
481.77	47049.45
481.95	46307.50
482.13	46003.23
482.31	46232.60
482.49	46759.22
482.67	46384.74
482.85	46738.16
483.03	47475.43
483.21	48060.56
483.39	48011.41
483.57	47145.41
483.74	46731.14
483.92	46930.08
484.10	47119.66
484.28	48083.97
484.46	48921.88
484.64	49158.27
484.82	48226.74
485.00	47168.82
485.18	46724.11
485.35	45495.33
485.53	42642.22
485.71	38689.06
485.89	38113.28
486.07	40177.64
486.25	43650.99
486.43	45935.35
486.61	46541.55
486.78	46389.42
486.96	46752.20
487.14	48280.57
487.32	49158.27
487.50	49998.52
487.68	50901.97
487.85	51381.78
488.03	51379.44
488.21	51016.66
488.39	50171.72
488.57	49647.44
488.75	49144.23
488.92	50478.33
489.10	52538.01
489.28	53766.79
489.46	54541.50
489.64	54279.36
489.81	54267.66
489.99	54033.61
490.17	53848.71
490.35	54508.74
490.53	54078.08
490.70	53616.99
490.88	53602.95
491.06	54525.12
491.24	54218.51
491.41	53427.41
491.59	51847.55
491.77	50993.25
491.95	52161.18
492.13	53256.55
492.30	54419.80
492.48	55339.63
492.66	55854.54
492.84	55676.66
493.01	55475.38
493.19	55222.60
493.37	54841.09
493.54	54424.48
493.72	55124.30
493.90	56062.85
494.08	56807.14
494.25	57146.52
494.43	57230.78
494.61	57443.77
494.79	57516.32
494.96	57574.84
495.14	56809.48
495.32	55941.14
495.49	55370.05
495.67	56334.35
495.85	57415.68
496.02	57895.49
496.20	57855.70
496.38	57403.98
496.55	57167.58
496.73	57715.27
496.91	57972.73
497.09	58363.60
497.26	58534.46
497.44	57944.64
497.62	57506.96
497.79	56917.15
497.97	55627.51
498.14	55632.19
498.32	56825.87
498.50	57785.49
498.67	58227.85
498.85	57991.45
499.03	58220.83
499.20	58344.87
499.38	58578.93
499.56	58195.08
499.73	57897.83
499.91	57415.68
500.08	57188.65
500.26	56130.73
500.44	56879.70
500.61	57350.15
500.79	57160.56
500.97	56980.34
501.14	56718.20
501.32	56575.43
501.49	56294.56
501.67	56615.22
501.84	57331.42
502.02	57820.59
502.20	58035.92
502.37	57998.48
502.55	57942.30
502.72	58520.41
502.90	59037.67
503.07	58850.43
503.25	58209.12
503.43	57570.16
503.60	57052.90
503.78	56420.95
503.95	56800.12
504.13	57984.43
504.30	58838.73
504.48	58637.44
504.65	58258.27
504.83	58333.17
505.01	58717.02
505.18	59054.06
505.36	59711.75
505.53	59735.15
505.71	59842.82
505.88	60165.81
506.06	59405.14
506.23	59082.14
506.41	58827.02
506.58	59032.99
506.76	59037.67
506.93	58885.54
507.11	58820.00
507.28	58897.24
507.46	58438.50
507.63	57523.35
507.81	57719.95
507.98	57811.23
508.16	58527.44
508.33	59103.21
508.50	59363.01
508.68	59686.00
508.85	59861.54
509.03	60025.38
509.20	59938.78
509.38	59306.83
509.55	58436.16
509.73	58546.16
509.90	59194.49
510.08	59363.01
510.25	59203.85
510.42	59042.35
510.60	58976.82
510.77	59302.15
510.95	59686.00
511.12	59814.73
511.30	60123.68
511.47	60266.45
511.64	60240.71
511.82	60133.04
511.99	59278.75
512.17	58922.99
512.34	58436.16
512.51	58754.47
512.69	58810.64
512.86	59082.14
513.04	59304.49
513.21	59428.54
513.38	58930.01
513.56	58478.28
513.73	57846.34
513.90	58195.08
514.08	58017.20
514.25	58550.84
514.43	58719.36
514.60	58901.92
514.77	58885.54
514.95	58974.48
515.12	59105.55
515.29	59079.80
515.47	59552.59
515.64	59859.20
515.81	59381.73
515.99	58920.65
516.16	57563.14
516.33	55442.61
516.51	53909.56
516.68	53212.08
516.85	52577.79
517.03	53010.79
517.20	55657.94
517.37	57956.35
517.54	58899.58
517.72	58384.66
517.89	56264.14
518.06	53918.92
518.24	53961.05
518.41	56502.87
518.58	57614.63
518.75	57635.69
518.93	57846.34
519.10	57963.37
519.27	58255.93
519.45	58592.97
519.62	59093.85
519.79	59501.10
519.96	59430.88
520.14	58927.67
520.31	58122.52
520.48	57942.30
520.65	58295.72
520.83	59253.00
521.00	59568.97
521.17	59449.61
521.34	58995.54
521.52	59297.47
521.69	59639.19
521.86	60116.66
522.03	59812.39
522.20	58688.93
522.38	57853.36
522.55	57696.55
522.72	58398.71
522.89	58302.74
523.07	58642.12
523.24	58918.31
523.41	59852.18
523.58	60079.21
523.75	60219.64
523.92	60449.02
524.10	60310.92
524.27	60236.03
524.44	59985.59
524.61	59627.49
524.78	59681.32
524.96	59767.92
525.13	59529.19
525.30	59770.26
525.47	60257.09
525.64	60282.84
525.81	59540.89
525.98	58202.10
526.16	56781.40
526.33	56296.91
526.50	56020.72
526.67	55278.77
526.84	56062.85
527.01	56938.21
527.18	57600.58
527.36	58672.55
527.53	59400.46
527.70	59784.30
527.87	59150.02
528.04	58726.38
528.21	59175.76
528.38	59992.61
528.55	60402.21
528.72	60582.43
528.89	60673.71
529.07	60493.49
529.24	59910.69
529.41	59414.50
529.58	58571.91
529.75	58686.59
529.92	59339.60
530.09	59465.99
530.26	60032.40
530.43	60299.22
530.60	60182.19
530.77	60624.56
530.94	60643.28
531.11	60266.45
531.28	59777.28
531.46	59863.88
531.63	59898.99
531.80	59735.15
531.97	59454.29
532.14	58639.78
532.31	57698.89
532.48	57083.33
532.65	56875.02
532.82	57918.90
532.99	58843.41
533.16	59206.19
533.33	59568.97
533.50	59561.95
533.67	58918.31
533.84	58522.76
534.01	58815.32
534.18	58873.84
534.35	59215.55
534.52	59105.55
534.69	59131.29
534.86	59613.44
535.03	59625.15
535.20	60210.28
535.37	60367.10
535.54	60420.93
535.71	60205.60
535.88	59835.80
536.05	59274.07
536.22	59011.93
536.38	58557.86
536.55	58052.31
536.72	57745.70
536.89	57752.72
537.06	58267.64
537.23	59426.20
537.40	59517.48
537.57	59346.62
537.74	59035.33
537.91	59028.31
538.08	59267.05
538.25	59185.13
538.42	59351.30
538.59	59035.33
538.75	58789.58
538.92	58188.06
539.09	58443.18
539.26	57832.30
539.43	57925.92
539.60	57982.09
539.77	58260.62
539.94	58028.90
540.11	57272.91
540.28	56802.46
540.44	56790.76
540.61	57153.54
540.78	57120.77
540.95	57659.10
541.12	57961.03
541.29	58464.24
541.46	58642.12
541.62	58443.18
541.79	58548.50
541.96	57935.28
542.13	57858.04
542.30	58218.49
542.47	58122.52
542.63	58138.91
542.80	58005.50
542.97	57928.26
543.14	57958.69
543.31	58019.54
543.48	58351.90
543.64	59341.94
543.81	59477.69
543.98	59196.83
544.15	58632.76
544.32	57883.79
544.48	58000.82
544.65	58621.06
544.82	58885.54
544.99	58522.76
545.16	58171.67
545.32	57970.39
545.49	58553.18
545.66	59070.44
545.83	58616.38
546.00	58312.11
546.16	58124.86
546.33	58166.99
546.50	58274.66
546.67	58527.44
546.83	58059.33
547.00	58459.56
547.17	57462.49
547.34	56956.94
547.50	56882.04
547.67	57413.34
547.84	57591.22
548.00	57794.85
548.17	58026.56
548.34	58174.02
548.51	58010.18
548.67	58059.33
548.84	58351.90
549.01	58347.21
549.18	58209.12
549.34	58040.60
549.51	57932.94
549.68	57825.28
549.84	57726.97
550.01	57556.11
550.18	57537.39
550.34	57609.95
550.51	57930.60
550.68	57689.52
550.84	57331.42
551.01	57279.93
551.18	57172.27
551.34	57385.25
551.51	57677.82
551.68	58183.38
551.84	58014.86
552.01	57998.48
552.18	57853.36
552.34	57090.35
552.51	56470.11
552.68	56362.44
552.84	57031.83
553.01	57153.54
553.18	57284.61
553.34	57116.09
553.51	57387.60
553.67	57602.92
553.84	57666.12
554.01	57748.04
554.17	57446.11
554.34	57560.79
554.51	57619.31
554.67	57691.86
554.84	57694.21
555.00	57345.47
555.17	57155.88
555.33	56954.60
555.50	57230.78
555.67	57193.33
555.83	57179.29
556.00	56823.53
556.16	56713.52
556.33	56357.76
556.50	56168.18
556.66	56327.33
556.83	56006.68
556.99	56196.26
557.16	56156.47
557.32	56355.42
557.49	56968.64
557.65	56514.58
557.82	56498.19
557.98	56364.78
558.15	56163.50
558.32	55229.62
558.48	54202.13
558.65	54370.64
558.81	55040.04
558.98	55133.66
559.14	55533.89
559.31	55454.31
559.47	55508.14
559.64	55206.22
559.80	54775.56
559.97	55009.61
560.13	55051.74
560.30	55978.59
560.46	56858.63
560.63	56844.59
560.79	56924.17
560.96	56664.37
561.12	55281.11
561.29	54766.20
561.45	54412.77
561.61	55271.75
561.78	55320.90
561.94	55409.84
562.11	55381.76
562.27	55250.69
562.44	55625.17
562.60	55845.18
562.77	56137.75
562.93	55730.50
563.10	55620.49
563.26	55297.50
563.42	55058.76
563.59	55000.25
563.75	55262.39
563.92	55159.41
564.08	54866.84
564.24	55246.00
564.41	55437.93
564.57	55030.68
564.74	54925.35
564.90	55196.85
565.07	54780.24
565.23	54316.81
565.39	53848.71
565.56	53504.65
565.72	53593.59
565.88	53820.62
566.05	53937.65
566.21	54024.25
566.38	54328.52
566.54	54447.88
566.70	54621.08
566.87	54993.23
567.03	55033.02
567.19	55196.85
567.36	54878.54
567.52	54539.16
567.68	54504.06
567.85	53593.59
568.01	53649.76
568.17	53001.43
568.34	52919.51
568.50	53059.94
568.66	53223.78
568.83	53490.60
568.99	53813.60
569.15	53958.71
569.32	53759.76
569.48	53408.68
569.64	53244.85
569.81	52781.42
569.97	53102.07
570.13	52982.71
570.30	52079.26
570.46	52016.07
570.62	51449.66
570.78	51168.79
570.95	51363.06
571.11	52617.58
571.27	52608.22
571.43	52802.49
571.60	53120.80
571.76	53090.37
571.92	53448.47
572.09	53647.42
572.25	53450.81
572.41	53511.67
572.57	53301.02
572.74	53413.37
572.90	52842.27
573.06	52933.56
573.22	53153.57
573.38	53137.18
573.55	52975.69
573.71	53394.64
573.87	53176.97
574.03	52905.47
574.20	52804.83
574.36	52523.96
574.52	52341.40
574.68	52266.50
574.84	51693.07
575.01	51309.22
575.17	51126.66
575.33	51337.31
575.49	51957.55
575.65	51840.53
575.82	51770.31
575.98	51466.04
576.14	51341.99
576.30	52158.84
576.46	52205.65
576.62	52144.80
576.79	51744.56
576.95	51697.75
577.11	51557.32
577.27	51625.20
577.43	51894.36
577.59	51625.20
577.75	50979.21
577.92	49993.84
578.08	49832.35
578.24	50047.68
578.40	50078.10
578.56	50759.20
578.72	50798.99
578.88	50932.40
579.04	51072.83
579.21	51000.27
579.37	51482.42
579.53	51316.25
579.69	51344.33
579.85	51255.39
580.01	51360.72
580.17	50555.57
580.33	50960.48
580.49	50815.37
580.65	50974.53
580.82	51009.64
580.98	51210.92
581.14	50920.70
581.30	51164.11
581.46	51222.62
581.62	51189.86
581.78	51072.83
581.94	51510.51
582.10	51091.55
582.26	51398.16
582.42	51292.84
582.58	51337.31
582.74	51133.68
582.90	51035.38
583.06	51320.93
583.22	51023.68
583.38	51154.75
583.54	51033.04
583.70	51065.81
583.86	51178.15
584.02	50672.60
584.18	50864.52
584.34	50609.40
584.50	50717.07
584.66	50571.96
584.82	49888.52
584.98	50176.40
585.14	49633.40
585.30	48732.29
585.46	48673.78
585.62	48402.28
585.78	48912.52
585.94	48725.27
586.10	49141.89
586.26	49549.14
586.42	49759.79
586.58	49825.32
586.74	50064.06
586.90	49546.80
587.06	49621.70
587.22	49343.17
587.38	49205.08
587.54	48893.79
587.70	48779.10
587.86	48554.41
588.02	47906.08
588.18	47868.64
588.34	46677.30
588.49	44201.02
588.65	41837.08
588.81	42033.68
588.97	42583.71
589.13	42410.51
589.29	42401.14
589.45	42721.80
589.61	44751.04
589.77	45504.70
589.93	46534.53
590.08	47100.94
590.24	47494.15
590.40	47938.85
590.56	47599.47
590.72	47047.11
590.88	47086.90
591.04	46497.08
591.20	46560.28
591.35	46602.41
591.51	46782.63
591.67	46569.64
591.83	46719.43
591.99	46761.56
592.15	47075.19
592.31	47110.30
592.46	46820.08
592.62	46761.56
592.78	46019.61
592.94	46447.93
593.10	46225.58
593.26	46728.80
593.41	47131.37
593.57	46663.26
593.73	46366.01
593.89	45933.01
594.05	45708.32
594.20	45691.94
594.36	45216.81
594.52	44514.65
594.68	44828.28
594.84	44706.57
594.99	45684.92
595.15	45413.41
595.31	46075.79
595.47	45717.68
595.62	45963.44
595.78	46202.18
595.94	46270.05
596.10	46387.08
596.25	45818.33
596.41	45579.59
596.57	45588.95
596.73	46038.34
596.88	45867.48
597.04	45984.51
597.20	45399.37
597.36	45256.60
597.51	45333.84
597.67	45270.64
597.83	45502.35
597.99	45006.16
598.14	44531.03
598.30	44561.46
598.46	44336.77
598.61	44900.84
598.77	44477.20
598.93	44978.07
599.09	45017.86
599.24	45207.45
599.40	45055.31
599.56	45268.30
599.71	45305.75
599.87	44893.82
600.03	44692.53
600.18	44477.20
600.34	44306.34
600.50	43913.13
600.65	43632.27
600.81	44165.91
600.97	44018.46
601.12	44123.78
601.28	44034.84
601.44	44098.03
601.59	43335.02
601.75	42887.98
601.91	43042.45
602.06	42953.51
602.22	43040.11
602.37	43243.74
602.53	43641.63
602.69	43924.83
602.84	43775.04
603.00	44360.17
603.16	44421.03
603.31	44521.67
603.47	44591.89
603.62	43765.68
603.78	44170.59
603.94	44151.87
604.09	44025.48
604.25	43810.15
604.40	43669.72
604.56	43936.54
604.71	44282.94
604.87	43828.87
605.03	43650.99
605.18	43629.93
605.34	43292.89
605.49	43070.54
605.65	43393.53
605.80	43047.13
605.96	42923.08
606.12	42651.58
606.27	42632.86
606.43	42579.03
606.58	43136.07
606.74	42855.21
606.89	42787.33
607.05	43030.75
607.20	43091.60
607.36	42436.25
607.51	42316.89
607.67	42356.67
607.82	41808.99
607.98	41743.45
608.13	41537.49
608.29	41588.98
608.44	41493.02
608.60	41155.98
608.75	41591.32
608.91	41518.76
609.06	41338.54
609.22	41984.53
609.37	41921.34
609.53	41500.04
609.68	40985.12
609.84	40240.83
609.99	39765.70
610.15	40421.05
610.30	40467.86
610.46	40708.94
610.61	41165.34
610.76	41521.10
610.92	41584.30
611.07	41586.64
611.23	41785.58
611.38	41368.97
611.54	41397.06
611.69	40456.16
611.84	39667.40
612.00	39456.75
612.15	39344.41
612.31	39922.52
612.46	39651.02
612.62	40121.46
612.77	39955.29
612.92	40348.50
613.08	39777.40
613.23	38810.76
613.39	38162.43
613.54	38087.54
613.69	38375.42
613.85	38234.99
614.00	38438.62
614.15	38796.72
614.31	38864.60
614.46	39285.89
614.62	38831.83
614.77	39241.42
614.92	39328.02
615.08	38998.01
615.23	38565.01
615.38	38628.20
615.54	38132.01
615.69	36774.50
615.84	36184.68
616.00	36233.83
616.15	36116.81
616.30	36664.49
616.46	36643.43
616.61	36737.05
616.76	36987.49
616.92	37254.31
617.07	37479.00
617.22	37483.68
617.37	37418.14
617.53	37780.93
617.68	38031.36
617.83	37937.74
617.99	37961.15
618.14	38164.78
618.29	37979.87
618.45	37345.59
618.60	37165.37
618.75	36870.46
618.90	36353.20
619.06	36910.25
619.21	36905.57
619.36	37209.84
619.51	37235.58
619.67	36800.24
619.82	37237.92
619.97	37486.02
620.12	37202.82
620.28	37144.30
620.43	37258.99
620.58	37324.52
620.73	36905.57
620.89	36261.92
621.04	36130.85
621.19	36514.70
621.34	35938.93
621.49	35880.41
621.65	35945.95
621.80	35728.28
621.95	35915.52
622.10	36264.26
622.25	35842.96
622.41	35571.46
622.56	34923.13
622.71	35077.61
622.86	34625.89
623.01	35180.59
623.16	34763.98
623.32	35068.25
623.47	35222.72
623.62	34866.96
623.77	34817.81
623.92	34054.79
624.07	34024.37
624.23	33699.03
624.38	33570.30
624.53	33752.87
624.68	33923.72
624.83	33872.23
624.98	33474.34
625.13	33184.12
625.29	33165.39
625.44	33240.29
625.59	33266.03
625.74	33684.99
625.89	33727.12
626.04	33785.63
626.19	34068.84
626.34	33605.41
626.49	33560.94
626.65	33413.49
626.80	33933.09
626.95	33380.72
627.10	33326.89
627.25	32603.66
627.40	31786.82
627.55	30944.22
627.70	30771.02
627.85	30876.35
628.00	31257.85
628.15	31938.95
628.30	31974.06
628.45	32002.14
628.60	32048.96
628.76	32088.74
628.91	32161.30
629.06	31929.59
629.21	31594.89
629.36	31424.03
629.51	31473.18
629.66	31040.18
629.81	30747.62
629.96	31161.89
630.11	30904.43
630.26	31601.91
630.41	31531.70
630.56	31620.64
630.71	32023.21
630.86	31536.38
631.01	30967.63
631.16	30541.65
631.31	30288.87
631.46	30277.17
631.61	30583.78
631.76	30494.84
631.91	30658.68
632.06	31019.12
632.21	31068.27
632.36	31159.55
632.51	31089.34
632.66	31587.87
632.81	31227.43
632.96	31065.93
633.10	30221.00
633.25	30431.65
633.40	30668.04
633.55	30347.39
633.70	30866.98
633.85	30106.31
634.00	30586.12
634.15	30539.31
634.30	30504.20
634.45	30239.72
634.60	30370.79
634.75	30515.90
634.90	30560.37
635.05	30216.32
635.19	30125.04
635.34	30356.75
635.49	29692.04
635.64	29809.06
635.79	29673.31
635.94	29605.44
636.09	29933.11
636.24	29979.92
636.39	29631.18
636.53	30068.86
636.68	30022.05
636.83	29893.32
636.98	30019.71
637.13	29991.62
637.28	30174.19
637.43	30228.02
637.57	30043.12
637.72	29790.34
637.87	29666.29
638.02	29525.86
638.17	29507.13
638.32	29619.48
638.46	29652.25
638.61	29649.91
638.76	29116.26
638.91	29029.66
639.06	28922.00
639.20	28833.06
639.35	29010.94
639.50	28189.41
639.65	28140.26
639.80	28936.04
639.94	28842.42
640.09	28556.88
640.24	28552.20
640.39	28608.37
640.54	28128.56
640.68	27983.44
640.83	27824.29
640.98	27700.24
641.13	27548.11
641.27	28027.92
641.42	28107.49
641.57	27889.82
641.72	27803.22
641.86	28044.30
642.01	27714.28
642.16	28128.56
642.31	28065.36
642.45	28297.08
642.60	28091.11
642.75	27655.77
642.90	27955.36
643.04	27367.88
643.19	27779.82
643.34	27662.79
643.48	27297.67
643.63	27321.07
643.78	27388.95
643.93	27491.93
644.07	27742.37
644.22	27545.76
644.37	27515.34
644.51	27271.92
644.66	27222.77
644.81	26862.33
644.95	26771.05
645.10	26923.18
645.25	26801.47
645.39	26600.19
645.54	26312.30
645.69	26134.42
645.83	25469.71
645.98	25848.88
646.13	26099.31
646.27	25493.12
646.42	25661.63
646.57	25687.38
646.71	25958.88
646.86	25755.26
647.00	25420.56
647.15	25312.89
647.30	25017.99
647.44	25343.32
647.59	25270.76
647.74	25069.48
647.88	25034.37
648.03	25193.53
648.17	25149.06
648.32	25111.61
648.47	25369.07
648.61	25195.87
648.76	25219.27
648.90	24851.81
649.05	23969.43
649.20	23559.83
649.34	23370.25
649.49	23559.83
649.63	23875.80
649.78	24624.78
649.92	24907.98
650.07	24875.21
650.21	24900.96
650.36	25146.72
650.51	25266.08
650.65	25282.47
650.80	25149.06
650.94	25312.89
651.09	24797.98
651.23	24107.52
651.38	24091.13
651.52	23845.38
651.67	23913.25
651.81	23805.59
651.96	24528.81
652.10	24383.70
652.25	24156.67
652.39	24865.85
652.54	24486.68
652.68	24297.10
652.83	24292.42
652.97	24273.70
653.12	24407.11
653.26	24348.59
653.41	24400.08
653.55	24271.36
653.70	24432.85
653.84	24339.23
653.99	24079.43
654.13	23463.87
654.27	23342.16
654.42	23253.22
654.56	22981.72
654.71	23232.16
654.85	22864.69
655.00	22616.60
655.14	22473.82
655.29	22253.81
655.43	21933.16
655.57	20830.77
655.72	19831.36
655.86	18097.02
656.01	17195.92
656.15	17336.35
656.30	18235.11
656.44	19211.12
656.58	20116.90
656.73	20863.54
656.87	21252.06
657.01	21598.46
657.16	21797.41
657.30	22260.84
657.45	22324.03
657.59	22574.47
657.73	22572.13
657.88	22895.12
658.02	22841.29
658.16	22448.08
658.31	22450.42
658.45	22642.34
658.60	22733.62
658.74	22312.33
658.88	21954.22
659.03	21638.25
659.17	21708.47
659.31	21839.54
659.46	21977.63
659.60	22298.28
659.74	22455.10
659.89	22604.89
660.03	22548.72
660.17	22642.34
660.32	22352.12
660.46	22424.67
660.60	22244.45
660.74	22092.32
660.89	21956.57
661.03	21607.83
661.17	22396.59
661.32	21975.29
661.46	21802.09
661.60	22319.35
661.74	21916.78
661.89	22045.51
662.03	21937.84
662.17	21942.52
662.31	21720.17
662.46	21888.69
662.60	21876.99
662.74	21390.16
662.88	21572.72
663.03	21043.76
663.17	20809.70
663.31	20975.88
663.45	21151.42
663.60	21174.83
663.74	21046.10
663.88	20634.16
664.02	20999.29
664.17	20973.54
664.31	20594.37
664.45	20900.98
664.59	20727.78
664.73	21165.46
664.88	21116.31
665.02	21001.63
665.16	21167.80
665.30	20697.36
665.44	20863.54
665.59	20697.36
665.73	20348.62
665.87	20163.72
666.01	19824.34
666.15	20098.18
666.29	19910.94
666.44	20187.12
666.58	19995.20
666.72	19967.11
666.86	20222.23
667.00	20189.46
667.14	20074.77
667.28	20086.48
667.43	19822.00
667.57	19744.76
667.71	19538.79
667.85	19793.91
667.99	19648.80
668.13	19803.27
668.27	19829.02
668.41	20025.62
668.56	19606.67
668.70	19770.51
668.84	19557.52
668.98	19323.46
669.12	19421.77
669.26	19215.80
669.40	19159.63
669.54	19026.21
669.68	19154.94
669.82	19154.94
669.96	18838.97
670.10	18764.07
670.25	18822.59
670.39	18754.71
670.53	18845.99
670.67	18738.33
670.81	18850.67
670.95	18487.89
671.09	18450.44
671.23	18431.72
671.37	18073.62
671.51	18118.09
671.65	18197.67
671.79	18024.47
671.93	17998.72
672.07	18511.30
672.21	18265.54
672.35	18167.24
672.49	17968.29
672.63	18387.25
672.77	17664.02
672.91	17781.05
673.05	17781.05
673.19	17846.58
673.33	17752.96
673.47	17624.23
673.61	17781.05
673.75	17514.23
673.89	17624.23
674.03	17572.74
674.17	17547.00
674.31	17673.39
674.45	17235.70
674.59	17053.14
674.73	17261.45
674.87	17013.35
675.01	16989.95
675.15	17062.51
675.29	17095.27
675.43	16940.80
675.56	16987.61
675.70	17025.06
675.84	17006.33
675.98	16526.52
676.12	16617.80
676.26	16870.58
676.40	16652.91
676.54	16540.57
676.68	16624.83
676.82	16046.71
676.96	16271.40
677.10	16280.77
677.23	16257.36
677.37	16189.49
677.51	16409.50
677.65	16456.31
677.79	15908.62
677.93	16107.57
678.07	15723.72
678.21	15503.71
678.34	15768.19
678.48	15225.18
678.62	15367.96
678.76	15267.31
678.90	15218.16
679.04	15499.03
679.18	15580.95
679.31	15293.06
679.45	15124.54
679.59	14991.13
679.73	15208.80
679.87	15009.86
680.00	14869.42
680.14	14930.28
680.28	14974.75
680.42	14616.65
680.56	14780.48
680.70	14520.68
680.83	14539.41
680.97	14293.65
681.11	14567.49
681.25	14693.88
681.39	14560.47
681.52	14567.49
681.66	14286.63
681.80	14415.36
681.94	14043.21
682.07	14197.69
682.21	14132.15
682.35	14153.22
682.49	14230.46
682.62	13919.17
682.76	13916.83
682.90	13696.82
683.04	13422.97
683.17	13642.98
683.31	13666.39
683.45	13591.49
683.59	13437.02
683.72	13186.58
683.86	12901.03
684.00	13004.02
684.13	13018.06
684.27	13205.30
684.41	13078.91
684.55	12996.99
684.68	12950.18
684.82	12709.11
684.96	12989.97
685.09	12643.57
685.23	12491.44
685.37	12589.74
685.50	12514.84
685.64	12390.80
685.78	12388.46
685.91	12631.87
686.05	12248.02
686.19	12121.63
686.32	11377.34
686.46	10146.22
686.60	8762.97
686.73	8351.03
686.87	8009.31
687.01	7555.25
687.14	7602.06
687.28	8035.06
687.42	8425.93
687.55	8936.17
687.69	9303.63
687.82	9694.50
687.96	10139.20
688.10	10129.84
688.23	10043.24
688.37	9610.24
688.50	9441.72
688.64	9603.22
688.78	9397.25
688.91	9261.50
689.05	9572.79
689.18	9032.13
689.32	9184.26
689.46	9238.09
689.59	9610.24
689.73	9537.68
689.86	9659.39
690.00	9575.13
690.13	9628.96
690.27	9294.27
690.41	9500.23
690.54	9495.55
690.68	9619.60
690.81	9530.66
690.95	9713.22
691.08	9678.12
691.22	9633.64
691.35	9736.63
691.49	9619.60
691.62	9682.80
691.76	9736.63
691.89	9628.96
692.03	9525.98
692.16	9441.72
692.30	9298.95
692.43	9535.34
692.57	9373.85
692.70	9217.03
692.84	9043.83
692.97	9128.09
693.11	9181.92
693.24	9064.89
693.38	8872.97
693.51	9062.55
693.65	8814.46
693.78	8662.32
693.92	8603.81
694.05	8596.79
694.19	8781.69
694.32	8542.96
694.45	8582.74
694.59	8454.02
694.72	8503.17
694.86	8746.58
694.99	8711.47
695.13	8669.34
695.26	8313.58
695.39	8301.88
695.53	8475.08
695.66	8395.50
695.80	8297.20
695.93	8456.36
696.07	8383.80
696.20	8470.40
696.33	8510.19
696.47	8643.60
696.60	8659.98
696.73	8861.27
696.87	8610.83
697.00	8730.20
697.14	8622.53
697.27	8528.91
697.40	8236.35
697.54	8166.13
697.67	7896.97
697.80	7885.26
697.94	7906.33
698.07	7779.94
698.21	7744.83
698.34	7833.77
698.47	7623.12
698.61	7695.68
698.74	7433.54
698.87	7623.12
699.01	7510.78
699.14	7721.43
699.27	7604.40
699.40	7667.60
699.54	7609.08
699.67	7391.41
699.80	7171.40
699.94	7297.79
700.07	7096.50
700.20	7082.46
700.34	6960.75
700.47	6897.56
700.60	6937.35
700.73	7005.22
700.87	7005.22
701.00	6787.55
701.13	6963.09
701.26	6932.67
701.40	6633.08
701.53	6771.17
701.66	6750.10
701.79	6614.35
701.93	6771.17
702.06	6712.66
702.19	6707.98
702.32	6551.16
702.46	6511.37
702.59	6506.69
702.72	6523.07
702.85	6338.17
702.99	6609.67
703.12	6492.65
703.25	6649.46
703.38	6509.03
703.51	6450.52
703.65	6319.45
703.78	6162.63
703.91	6441.15
704.04	6466.90
704.17	6326.47
704.31	6333.49
704.44	6331.15
704.57	6487.96
704.70	6197.74
704.83	6251.57
704.96	6410.73
705.10	6050.28
705.23	6125.18
>>>>>End Processed Spectral Data<<<<<
