SpectraSuite Data File
++++++++++++++++++++++++++++++++++++
Date: Mon Oct 07 14:54:56 GMT-05:00 2013
User: price-jones
Dark Spectrum Present: No
Reference Spectrum Present: No
Number of Sampled Component Spectra: 1
Spectrometers: USB2+H05261
Integration Time (usec): 10000 (USB2+H05261)
Spectra Averaged: 1 (USB2+H05261)
Boxcar Smoothing: 0 (USB2+H05261)
Correct for Electrical Dark: No (USB2+H05261)
Strobe/Lamp Enabled: No (USB2+H05261)
Correct for Detector Non-linearity: No (USB2+H05261)
Correct for Stray Light: No (USB2+H05261)
Number of Pixels in Processed Spectrum: 2048
>>>>>Begin Processed Spectral Data<<<<<
365.73	0.00
365.92	0.00
366.12	0.00
366.32	0.00
366.52	0.00
366.72	0.00
366.91	0.00
367.11	0.00
367.31	0.00
367.51	0.00
367.70	0.00
367.90	0.00
368.10	0.00
368.30	0.00
368.49	0.00
368.69	0.00
368.89	0.00
369.09	0.00
369.28	0.00
369.48	0.00
369.68	0.00
369.87	0.00
370.07	0.00
370.27	0.00
370.47	0.00
370.66	0.00
370.86	67.88
371.06	105.32
371.25	28.09
371.45	72.56
371.65	9.36
371.84	0.00
372.04	81.92
372.24	140.43
372.44	91.28
372.63	79.58
372.83	91.28
373.03	93.62
373.22	60.85
373.42	18.72
373.62	88.94
373.81	110.01
374.01	70.22
374.21	135.75
374.40	77.24
374.60	74.90
374.79	124.05
374.99	180.22
375.19	196.60
375.38	236.39
375.58	168.52
375.78	166.18
375.97	191.92
376.17	140.43
376.37	212.99
376.56	191.92
376.76	262.14
376.95	269.16
377.15	301.93
377.35	280.86
377.54	402.57
377.74	411.93
377.93	330.02
378.13	369.80
378.33	327.68
378.52	273.84
378.72	283.20
378.91	245.76
379.11	264.48
379.31	191.92
379.50	266.82
379.70	217.67
379.89	294.91
380.09	320.65
380.28	468.11
380.48	306.61
380.68	308.95
380.87	210.65
381.07	330.02
381.26	283.20
381.46	154.48
381.65	266.82
381.85	229.37
382.04	138.09
382.24	175.54
382.43	107.66
382.63	156.82
382.83	53.83
383.02	152.13
383.22	98.30
383.41	182.56
383.61	133.41
383.80	119.37
384.00	229.37
384.19	330.02
384.39	376.83
384.58	334.70
384.78	372.15
384.97	269.16
385.17	346.40
385.36	259.80
385.56	299.59
385.75	238.73
385.95	255.12
386.14	376.83
386.34	358.10
386.53	393.21
386.72	248.10
386.92	348.74
387.11	280.86
387.31	308.95
387.50	322.99
387.70	297.25
387.89	332.36
388.09	341.72
388.28	318.31
388.48	337.04
388.67	365.12
388.86	444.70
389.06	472.79
389.25	496.19
389.45	528.96
389.64	552.37
389.84	540.66
390.03	442.36
390.22	498.53
390.42	451.72
390.61	603.86
390.81	650.67
391.00	631.94
391.19	606.20
391.39	573.43
391.58	589.82
391.78	533.64
391.97	414.27
392.16	421.30
392.36	320.65
392.55	231.71
392.75	196.60
392.94	121.71
393.13	46.81
393.33	145.11
393.52	308.95
393.71	346.40
393.91	472.79
394.10	437.68
394.29	503.22
394.49	613.22
394.68	620.24
394.88	645.99
395.07	695.14
395.26	575.77
395.46	676.41
395.65	657.69
395.84	528.96
396.04	411.93
396.23	344.06
396.42	189.58
396.62	154.48
396.81	224.69
397.00	362.78
397.19	592.16
397.39	692.80
397.58	653.01
397.77	877.70
397.97	798.12
398.16	898.77
398.35	945.58
398.55	1001.75
398.74	987.71
398.93	1020.47
399.12	1018.13
399.32	994.73
399.51	961.96
399.70	1057.92
399.90	1186.65
400.09	1137.50
400.28	1001.75
400.47	1095.37
400.67	1165.59
400.86	1210.06
401.05	1121.12
401.24	1032.18
401.44	1132.82
401.63	1172.61
401.82	1165.59
402.01	1128.14
402.21	1233.46
402.40	1240.48
402.59	1205.38
402.78	1203.04
402.97	1067.28
403.17	1167.93
403.36	1217.08
403.55	1306.02
403.74	1310.70
403.93	1245.16
404.13	1207.72
404.32	1025.15
404.51	1128.14
404.70	1254.53
404.89	1217.08
405.09	1301.34
405.28	1093.03
405.47	1219.42
405.66	1261.55
405.85	990.05
406.05	1057.92
406.24	1109.41
406.43	1172.61
406.62	1151.54
406.81	1235.80
407.00	1177.29
407.20	1107.07
407.39	1142.18
407.58	1296.66
407.77	1198.35
407.96	1334.11
408.15	1320.06
408.34	1378.58
408.54	1369.21
408.73	1411.34
408.92	1404.32
409.11	1364.53
409.30	1299.00
409.49	1186.65
409.68	1076.65
409.87	1050.90
410.07	1025.15
410.26	1221.76
410.45	1284.95
410.64	1291.98
410.83	1392.62
411.02	1511.99
411.21	1533.05
411.40	1437.09
411.59	1483.90
411.78	1488.58
411.98	1488.58
412.17	1420.71
412.36	1343.47
412.55	1455.81
412.74	1420.71
412.93	1439.43
413.12	1303.68
413.31	1640.72
413.50	1575.18
413.69	1547.09
413.88	1530.71
414.07	1472.20
414.26	1544.75
414.45	1575.18
414.64	1563.48
414.83	1614.97
415.02	1514.33
415.22	1533.05
415.41	1610.29
415.60	1591.56
415.79	1694.55
415.98	1790.51
416.17	1783.49
416.36	1715.61
416.55	1596.25
416.74	1542.41
416.93	1476.88
417.12	1504.96
417.31	1572.84
417.50	1629.01
417.69	1753.06
417.88	1563.48
418.07	1638.38
418.26	1612.63
418.45	1610.29
418.64	1741.36
418.83	1813.92
419.02	1713.27
419.21	1715.61
419.39	1678.16
419.58	1523.69
419.77	1528.37
419.96	1682.85
420.15	1668.80
420.34	1818.60
420.53	1813.92
420.72	1949.67
420.91	1802.21
421.10	1804.55
421.29	1856.04
421.48	1799.87
421.67	1893.49
421.86	1710.93
422.05	1650.08
422.24	1526.03
422.43	1476.88
422.61	1598.59
422.80	1783.49
422.99	1760.08
423.18	1713.27
423.37	1689.87
423.56	1624.33
423.75	1668.80
423.94	1701.57
424.13	1645.40
424.32	1579.86
424.50	1661.78
424.69	1472.20
424.88	1614.97
425.07	1671.14
425.26	1647.74
425.45	1598.59
425.64	1582.20
425.83	1645.40
426.01	1706.25
426.20	1760.08
426.39	1795.19
426.58	1514.33
426.77	1383.26
426.96	1401.98
427.15	1544.75
427.33	1631.35
427.52	1706.25
427.71	1533.05
427.90	1626.67
428.09	1607.95
428.28	1661.78
428.46	1448.79
428.65	1486.24
428.84	1614.97
429.03	1556.46
429.22	1561.14
429.40	1373.89
429.59	1135.16
429.78	1011.11
429.97	1107.07
430.16	1006.43
430.34	1121.12
430.53	1004.09
430.72	1090.69
430.91	1181.97
431.10	1479.22
431.28	1746.04
431.47	2036.27
431.66	1994.14
431.85	1804.55
432.03	1685.19
432.22	1572.84
432.41	1689.87
432.60	1834.98
432.79	1872.43
432.97	1944.99
433.16	1947.33
433.35	1692.21
433.54	1591.56
433.72	1399.64
433.91	1497.94
434.10	1624.33
434.28	1771.79
434.47	1867.75
434.66	1956.69
434.85	1802.21
435.03	1771.79
435.22	1806.89
435.41	1940.30
435.59	1909.88
435.78	1940.30
435.97	2092.44
436.16	2050.31
436.34	2167.34
436.53	1984.77
436.72	1984.77
436.90	1844.34
437.09	1870.09
437.28	1717.95
437.46	1900.52
437.65	1844.34
437.84	1778.81
438.02	1551.78
438.21	1575.18
438.40	1692.21
438.58	1937.96
438.77	1905.20
438.96	1949.67
439.14	2001.16
439.33	2076.06
439.52	2134.57
439.70	2024.56
439.89	1846.68
440.08	1963.71
440.26	1895.83
440.45	1973.07
440.63	2143.93
440.82	2300.75
441.01	2242.23
441.19	2139.25
441.38	2216.49
441.57	2352.24
441.75	2298.41
441.94	2427.14
442.12	2375.64
442.31	2349.90
442.50	2305.43
442.68	2296.07
442.87	2312.45
443.05	2328.83
443.24	2310.11
443.43	2382.67
443.61	2352.24
443.80	2492.67
443.98	2314.79
444.17	2282.02
444.35	2293.72
444.54	2534.80
444.73	2476.29
444.91	2272.66
445.10	2125.21
445.28	2120.53
445.47	2169.68
445.65	2139.25
445.84	2167.34
446.02	2312.45
446.21	2366.28
446.39	2319.47
446.58	2296.07
446.77	2399.05
446.95	2267.98
447.14	2452.88
447.32	2527.78
447.51	2370.96
447.69	2335.85
447.88	2296.07
448.06	2331.17
448.25	2539.48
448.43	2408.41
448.62	2420.11
448.80	2345.22
448.99	2387.35
449.17	2492.67
449.36	2370.96
449.54	2392.03
449.73	2551.18
449.91	2628.42
450.10	2672.89
450.28	2649.49
450.46	2644.81
450.65	2574.59
450.83	2626.08
451.02	2518.42
451.20	2541.82
451.39	2693.96
451.57	2605.02
451.76	2525.44
451.94	2527.78
452.13	2555.86
452.31	2368.62
452.49	2150.95
452.68	2150.95
452.86	2223.51
453.05	2286.70
453.23	2345.22
453.42	2354.58
453.60	2523.10
453.78	2530.12
453.97	2492.67
454.15	2497.35
454.34	2413.09
454.52	2424.80
454.70	2345.22
454.89	2506.71
455.07	2448.20
455.26	2473.95
455.44	2434.16
455.62	2497.35
455.81	2621.40
455.99	2497.35
456.17	2581.61
456.36	2544.16
456.54	2672.89
456.73	2658.85
456.91	2773.53
457.09	2700.98
457.28	2651.83
457.46	2586.29
457.64	2693.96
457.83	2544.16
458.01	2525.44
458.19	2499.69
458.38	2572.25
458.56	2597.99
458.74	2691.62
458.93	2551.18
459.11	2471.61
459.29	2583.95
459.48	2605.02
459.66	2523.10
459.84	2649.49
460.03	2672.89
460.21	2466.92
460.39	2581.61
460.57	2682.25
460.76	2651.83
460.94	2719.70
461.12	2546.50
461.31	2576.93
461.49	2614.38
461.67	2719.70
461.85	2775.88
462.04	2684.59
462.22	2766.51
462.40	2710.34
462.59	2686.94
462.77	2743.11
462.95	2799.28
463.13	2656.51
463.32	2782.90
463.50	2609.70
463.68	2705.66
463.86	2607.36
464.05	2480.97
464.23	2588.63
464.41	2448.20
464.59	2471.61
464.78	2672.89
464.96	2752.47
465.14	2658.85
465.32	2588.63
465.50	2803.96
465.69	2942.05
465.87	2696.30
466.05	2600.34
466.23	2523.10
466.41	2356.92
466.60	2464.58
466.78	2511.39
466.96	2539.48
467.14	2581.61
467.32	2616.72
467.51	2572.25
467.69	2480.97
467.87	2689.28
468.05	2499.69
468.23	2579.27
468.41	2670.55
468.60	2651.83
468.78	2644.81
468.96	2691.62
469.14	2686.94
469.32	2633.10
469.50	2492.67
469.69	2607.36
469.87	2415.43
470.05	2590.97
470.23	2541.82
470.41	2593.31
470.59	2504.37
470.77	2548.84
470.95	2649.49
471.14	2644.81
471.32	2715.02
471.50	2796.94
471.68	2846.09
471.86	2810.98
472.04	2892.90
472.22	2944.39
472.40	2867.16
472.58	2729.06
472.77	2607.36
472.95	2864.82
473.13	2796.94
473.31	2605.02
473.49	2731.41
473.67	2736.09
473.85	2789.92
474.03	2902.26
474.21	2897.58
474.39	2932.69
474.57	2904.60
474.75	2993.55
474.93	2930.35
475.12	2729.06
475.30	2789.92
475.48	2909.29
475.66	2883.54
475.84	2885.88
476.02	2815.66
476.20	2801.62
476.38	2883.54
476.56	2986.52
476.74	2965.46
476.92	2913.97
477.10	3143.34
477.28	3215.90
477.46	3042.70
477.64	3199.51
477.82	3091.85
478.00	3143.34
478.18	3138.66
478.36	3126.96
478.54	3152.70
478.72	3171.43
478.90	3194.83
479.08	3382.07
479.26	3314.20
479.44	3239.30
479.62	3192.49
479.80	3311.86
479.98	3405.48
480.16	3229.94
480.34	3318.88
480.52	3452.29
480.70	3337.60
480.88	3337.60
481.06	3527.19
481.24	3489.74
481.41	3424.20
481.59	3569.32
481.77	3585.70
481.95	3499.10
482.13	3487.40
482.31	3597.40
482.49	3515.48
482.67	3438.25
482.85	3447.61
483.03	3550.59
483.21	3522.51
483.39	3581.02
483.57	3648.90
483.74	3559.95
483.92	3515.48
484.10	3599.74
484.28	3723.79
484.46	3618.47
484.64	3726.13
484.82	3822.09
485.00	3691.02
485.18	3667.62
485.35	3459.31
485.53	3234.62
485.71	2848.43
485.89	2724.38
486.07	2925.67
486.25	3325.90
486.43	3473.36
486.61	3595.06
486.78	3620.81
486.96	3485.06
487.14	3707.41
487.32	3843.16
487.50	3983.59
487.68	4023.38
487.85	4081.89
488.03	4093.60
488.21	3932.10
488.39	3885.29
488.57	3815.07
488.75	3868.91
488.92	4037.42
489.10	4095.94
489.28	4367.44
489.46	4578.09
489.64	4444.68
489.81	4346.37
489.99	4351.06
490.17	4479.79
490.35	4390.84
490.53	4440.00
490.70	4428.29
490.88	4222.33
491.06	4297.22
491.24	4510.21
491.41	4329.99
491.59	4086.58
491.77	4088.92
491.95	3939.12
492.13	4280.84
492.30	4507.87
492.48	4470.42
492.66	4751.29
492.84	4660.01
493.01	4613.20
493.19	4561.70
493.37	4533.62
493.54	4486.81
493.72	4681.07
493.90	4723.20
494.08	4973.64
494.25	4842.57
494.43	5025.13
494.61	4952.57
494.79	4952.57
494.96	4992.36
495.14	4919.81
495.32	4594.47
495.49	4510.21
495.67	4772.35
495.85	5036.83
496.02	5142.16
496.20	5128.11
496.38	4952.57
496.55	4891.72
496.73	5184.29
496.91	5053.22
497.09	5214.71
497.26	5310.68
497.44	5130.45
497.62	5083.64
497.79	4891.72
497.97	4702.14
498.14	4674.05
498.32	4919.81
498.50	5001.72
498.67	5146.84
498.85	5074.28
499.03	5018.11
499.20	5153.86
499.38	5263.86
499.56	5270.89
499.73	4992.36
499.91	4971.30
500.08	4868.31
500.26	4798.10
500.44	4800.44
500.61	4945.55
500.79	4905.76
500.97	4901.08
501.14	4823.84
501.32	4779.37
501.49	4753.63
501.67	4751.29
501.84	4961.94
502.02	5011.09
502.20	4952.57
502.37	5048.54
502.55	4997.04
502.72	5174.92
502.90	5151.52
503.07	5310.68
503.25	5240.46
503.43	4968.96
503.60	4912.78
503.78	4919.81
503.95	4760.65
504.13	5114.07
504.30	5284.93
504.48	5380.89
504.65	5158.54
504.83	5130.45
505.01	5114.07
505.18	5327.06
505.36	5479.19
505.53	5425.36
505.71	5523.66
505.88	5647.71
506.06	5432.38
506.23	5420.68
506.41	5245.14
506.58	5387.91
506.76	5341.10
506.93	5205.35
507.11	5163.22
507.28	5158.54
507.46	5191.31
507.63	4915.12
507.81	5015.77
507.98	5050.88
508.16	5266.21
508.33	5298.97
508.50	5331.74
508.68	5448.77
508.85	5626.65
509.03	5589.20
509.20	5359.83
509.38	5172.58
509.55	5355.15
509.73	5036.83
509.90	5338.76
510.08	5252.16
510.25	5266.21
510.42	5324.72
510.60	5238.12
510.77	5291.95
510.95	5446.43
511.12	5474.51
511.30	5476.85
511.47	5565.79
511.64	5586.86
511.82	5570.48
511.99	5551.75
512.17	5226.42
512.34	5179.61
512.51	5369.19
512.69	5210.03
512.86	5378.55
513.04	5259.18
513.21	5327.06
513.38	5338.76
513.56	5013.43
513.73	5025.13
513.90	5214.71
514.08	4985.34
514.25	5254.50
514.43	5188.97
514.60	5240.46
514.77	5181.95
514.95	5268.55
515.12	5179.61
515.29	5439.40
515.47	5455.79
515.64	5345.78
515.81	5514.30
515.99	5301.31
516.16	4929.17
516.33	4451.70
516.51	4229.35
516.68	4245.73
516.85	4119.34
517.03	4234.03
517.20	4624.90
517.37	5025.13
517.54	5128.11
517.72	5214.71
517.89	4634.26
518.06	4362.76
518.24	4329.99
518.41	4702.14
518.58	5053.22
518.75	5083.64
518.93	4985.34
519.10	5004.07
519.27	4933.85
519.45	4997.04
519.62	5308.34
519.79	5430.04
519.96	5275.57
520.14	5198.33
520.31	5088.32
520.48	4908.10
520.65	5116.41
520.83	5210.03
521.00	5446.43
521.17	5203.01
521.34	5266.21
521.52	5151.52
521.69	5350.46
521.86	5320.04
522.03	5544.73
522.20	5160.88
522.38	4772.35
522.55	4908.10
522.72	5088.32
522.89	5062.58
523.07	5179.61
523.24	5212.37
523.41	5392.59
523.58	5408.98
523.75	5476.85
523.92	5568.13
524.10	5526.00
524.27	5617.29
524.44	5439.40
524.61	5383.23
524.78	5366.85
524.96	5371.53
525.13	5289.61
525.30	5416.00
525.47	5509.62
525.64	5444.09
525.81	5231.10
525.98	4978.32
526.16	4744.27
526.33	4599.15
526.50	4655.33
526.67	4580.43
526.84	4697.46
527.01	4814.48
527.18	5088.32
527.36	5207.69
527.53	5200.67
527.70	5530.69
527.87	5053.22
528.04	5177.26
528.21	5310.68
528.38	5296.63
528.55	5455.79
528.72	5556.43
528.89	5490.90
529.07	5540.05
529.24	5561.11
529.41	5259.18
529.58	5228.76
529.75	5181.95
529.92	5284.93
530.09	5392.59
530.26	5516.64
530.43	5467.49
530.60	5584.52
530.77	5504.94
530.94	5462.81
531.11	5392.59
531.28	5277.91
531.46	5434.72
531.63	5322.38
531.80	5352.81
531.97	5350.46
532.14	5200.67
532.31	4765.33
532.48	4814.48
532.65	4851.93
532.82	5020.45
532.99	5100.03
533.16	5343.44
533.33	5256.84
533.50	5486.22
533.67	5329.40
533.84	5181.95
534.01	5088.32
534.18	5076.62
534.35	5441.75
534.52	5252.16
534.69	5165.56
534.86	5331.74
535.03	5378.55
535.20	5420.68
535.37	5511.96
535.54	5563.45
535.71	5359.83
535.88	5338.76
536.05	5130.45
536.22	5109.39
536.38	5022.79
536.55	5123.43
536.72	4798.10
536.89	4877.68
537.06	5043.85
537.23	5191.31
537.40	5160.88
537.57	5149.18
537.74	5184.29
537.91	5130.45
538.08	5423.02
538.25	5114.07
538.42	5163.22
538.59	5217.05
538.75	5043.85
538.92	5057.90
539.09	5043.85
539.26	4887.04
539.43	5104.71
539.60	5001.72
539.77	4994.70
539.94	4901.08
540.11	4835.55
540.28	4711.50
540.44	4777.03
540.61	4889.38
540.78	4983.00
540.95	4903.42
541.12	4983.00
541.29	5053.22
541.46	5123.43
541.62	5198.33
541.79	4908.10
541.96	4908.10
542.13	4994.70
542.30	4933.85
542.47	4973.64
542.63	4940.87
542.80	4910.44
542.97	4985.34
543.14	4903.42
543.31	4912.78
543.48	4985.34
543.64	5261.52
543.81	5128.11
543.98	5401.96
544.15	5006.41
544.32	4950.23
544.48	5011.09
544.65	5207.69
544.82	5008.75
544.99	4903.42
545.16	4964.28
545.32	4957.25
545.49	5062.58
545.66	5261.52
545.83	5083.64
546.00	5055.56
546.16	4929.17
546.33	4952.57
546.50	5022.79
546.67	5018.11
546.83	4966.62
547.00	5057.90
547.17	4915.12
547.34	4985.34
547.50	4816.82
547.67	4779.37
547.84	5074.28
548.00	4978.32
548.17	4882.36
548.34	5013.43
548.51	4945.55
548.67	5011.09
548.84	4901.08
549.01	4837.89
549.18	4975.98
549.34	5083.64
549.51	4971.30
549.68	4917.47
549.84	4915.12
550.01	4833.21
550.18	4819.16
550.34	4767.67
550.51	4856.61
550.68	4770.01
550.84	4800.44
551.01	4849.59
551.18	4718.52
551.34	4779.37
551.51	4865.97
551.68	4933.85
551.84	4922.15
552.01	4889.38
552.18	4830.87
552.34	4599.15
552.51	4723.20
552.68	4667.03
552.84	4800.44
553.01	4720.86
553.18	4748.95
553.34	4690.43
553.51	4807.46
553.67	4936.19
553.84	4788.74
554.01	4802.78
554.17	4802.78
554.34	4781.71
554.51	4744.27
554.67	4828.53
554.84	4865.97
555.00	4898.74
555.17	4671.71
555.33	4856.61
555.50	4685.75
555.67	4854.27
555.83	4667.03
556.00	4688.09
556.16	4671.71
556.33	4557.02
556.50	4613.20
556.66	4585.11
556.83	4489.15
556.99	4545.32
557.16	4606.17
557.32	4571.07
557.49	4617.88
557.65	4636.60
557.82	4643.62
557.98	4629.58
558.15	4575.75
558.32	4500.85
558.48	4341.69
558.65	4311.27
558.81	4322.97
558.98	4290.20
559.14	4435.32
559.31	4599.15
559.47	4423.61
559.64	4388.50
559.80	4325.31
559.97	4210.62
560.13	4428.29
560.30	4465.74
560.46	4676.39
560.63	4681.07
560.79	4706.82
560.96	4566.39
561.12	4503.19
561.29	4341.69
561.45	4386.16
561.61	4507.87
561.78	4411.91
561.94	4337.01
562.11	4489.15
562.27	4381.48
562.44	4535.96
562.60	4608.51
562.77	4472.76
562.93	4505.53
563.10	4477.44
563.26	4493.83
563.42	4507.87
563.59	4332.33
563.75	4234.03
563.92	4470.42
564.08	4329.99
564.24	4479.79
564.41	4505.53
564.57	4517.23
564.74	4479.79
564.90	4327.65
565.07	4273.82
565.23	4105.30
565.39	4166.15
565.56	4280.84
565.72	4133.39
565.88	4133.39
566.05	4135.73
566.21	4351.06
566.38	4334.67
566.54	4329.99
566.70	4395.53
566.87	4339.35
567.03	4332.33
567.19	4320.63
567.36	4337.01
567.52	4294.88
567.68	4325.31
567.85	4184.88
568.01	4173.18
568.17	4051.47
568.34	4067.85
568.50	4021.04
568.66	4084.23
568.83	4138.07
568.99	4124.02
569.15	4030.40
569.32	4182.54
569.48	4028.06
569.64	3962.53
569.81	3962.53
569.97	3990.61
570.13	4025.72
570.30	3999.98
570.46	3922.74
570.62	3782.31
570.78	3852.52
570.95	3913.38
571.11	3960.19
571.27	4023.38
571.43	4088.92
571.60	4074.87
571.76	4163.81
571.92	4189.56
572.09	4203.60
572.25	4287.86
572.41	4032.74
572.57	3950.82
572.74	4042.11
572.90	4196.58
573.06	4191.90
573.22	4063.17
573.38	3974.23
573.55	4074.87
573.71	3927.42
573.87	3896.99
574.03	3962.53
574.20	4109.98
574.36	3999.98
574.52	3906.35
574.68	3819.75
574.84	3915.72
575.01	3786.99
575.17	3908.69
575.33	3716.77
575.49	3866.56
575.65	3864.22
575.82	3918.06
575.98	3719.11
576.14	3901.67
576.30	3901.67
576.46	3939.12
576.62	4051.47
576.79	3817.41
576.95	3847.84
577.11	3758.90
577.27	3857.20
577.43	3889.97
577.59	3852.52
577.75	3826.78
577.92	3618.47
578.08	3669.96
578.24	3653.58
578.40	3632.51
578.56	3789.33
578.72	3700.39
578.88	3730.81
579.04	3845.50
579.21	3908.69
579.37	3892.31
579.53	3850.18
579.69	3859.54
579.85	3918.06
580.01	3836.14
580.17	3599.74
580.33	3812.73
580.49	3597.40
580.65	3761.24
580.82	3672.30
580.98	3751.88
581.14	3805.71
581.30	3744.86
581.46	3735.50
581.62	3934.44
581.78	3906.35
581.94	3925.08
582.10	3751.88
582.26	3714.43
582.42	3756.56
582.58	3854.86
582.74	3899.33
582.90	3618.47
583.06	3730.81
583.22	3861.88
583.38	3735.50
583.54	3857.20
583.70	3857.20
583.86	3852.52
584.02	3852.52
584.18	3882.95
584.34	3726.13
584.50	3658.26
584.66	3742.52
584.82	3756.56
584.98	3548.25
585.14	3712.09
585.30	3522.51
585.46	3728.47
585.62	3616.13
585.78	3571.66
585.94	3522.51
586.10	3459.31
586.26	3571.66
586.42	3602.08
586.58	3637.19
586.74	3672.30
586.90	3559.95
587.06	3517.83
587.22	3653.58
587.38	3588.04
587.54	3618.47
587.70	3466.33
587.86	3559.95
588.02	3346.97
588.18	3485.06
588.34	3325.90
588.49	3255.69
588.65	2932.69
588.81	2904.60
588.97	3033.33
589.13	3007.59
589.29	2984.18
589.45	2939.71
589.61	3192.49
589.77	3325.90
589.93	3328.24
590.08	3419.52
590.24	3419.52
590.40	3461.65
590.56	3375.05
590.72	3337.60
590.88	3435.91
591.04	3279.09
591.20	3438.25
591.35	3281.43
591.51	3309.52
591.67	3239.30
591.83	3342.28
591.99	3265.05
592.15	3389.10
592.31	3286.11
592.46	3304.84
592.62	3487.40
592.78	3419.52
592.94	3389.10
593.10	3400.80
593.26	3410.16
593.41	3382.07
593.57	3365.69
593.73	3344.63
593.89	3220.58
594.05	3185.47
594.20	3356.33
594.36	3290.79
594.52	3077.80
594.68	3183.13
594.84	3276.75
594.99	3171.43
595.15	3241.64
595.31	3234.62
595.47	3316.54
595.62	3258.03
595.78	3246.32
595.94	3358.67
596.10	3164.40
596.25	3321.22
596.41	3206.53
596.57	3295.47
596.73	3267.39
596.88	3368.03
597.04	3169.09
597.20	3091.85
597.36	3148.02
597.51	3199.51
597.67	3267.39
597.83	3229.94
597.99	3227.60
598.14	3176.11
598.30	3131.64
598.46	3073.12
598.61	3105.89
598.77	3112.91
598.93	3194.83
599.09	3129.30
599.24	3038.02
599.40	3199.51
599.56	3157.38
599.71	3171.43
599.87	3164.40
600.03	3101.21
600.18	3145.68
600.34	3028.65
600.50	3056.74
600.65	3117.59
600.81	3213.56
600.97	2965.46
601.12	3033.33
601.28	3012.27
601.44	3096.53
601.59	3164.40
601.75	3035.67
601.91	3101.21
602.06	3045.04
602.22	3199.51
602.37	3009.93
602.53	3112.91
602.69	3094.19
602.84	3080.14
603.00	3133.98
603.16	3136.32
603.31	3185.47
603.47	3213.56
603.62	3091.85
603.78	3087.17
603.94	3087.17
604.09	3075.46
604.25	3103.55
604.40	3012.27
604.56	2963.12
604.71	3084.83
604.87	3155.04
605.03	3096.53
605.18	3115.25
605.34	3056.74
605.49	2967.80
605.65	2974.82
605.80	2965.46
605.96	2946.73
606.12	2932.69
606.27	3002.91
606.43	3019.29
606.58	2979.50
606.74	2956.10
606.89	3070.78
607.05	2951.42
607.20	3016.95
607.36	2869.50
607.51	2909.29
607.67	2944.39
607.82	2918.65
607.98	2806.30
608.13	2904.60
608.29	2801.62
608.44	3005.25
608.60	2827.37
608.75	2897.58
608.91	2949.08
609.06	2998.23
609.22	2958.44
609.37	2920.99
609.53	2829.71
609.68	2937.37
609.84	2848.43
609.99	2691.62
610.15	2693.96
610.30	2815.66
610.46	2768.85
610.61	2911.63
610.76	2923.33
610.92	3023.97
611.07	2942.05
611.23	2904.60
611.38	2928.01
611.54	2841.41
611.69	2693.96
611.84	2679.91
612.00	2710.34
612.15	2736.09
612.31	2869.50
612.46	2733.75
612.62	2958.44
612.77	2881.20
612.92	2768.85
613.08	2754.81
613.23	2656.51
613.39	2752.47
613.54	2705.66
613.69	2675.23
613.85	2782.90
614.00	2857.79
614.15	2839.07
614.31	2703.32
614.46	2647.15
614.62	2658.85
614.77	2670.55
614.92	2656.51
615.08	2649.49
615.23	2555.86
615.38	2700.98
615.54	2548.84
615.69	2581.61
615.84	2499.69
616.00	2380.32
616.15	2450.54
616.30	2605.02
616.46	2539.48
616.61	2497.35
616.76	2478.63
616.92	2605.02
617.07	2562.89
617.22	2511.39
617.37	2565.23
617.53	2602.68
617.68	2710.34
617.83	2628.42
617.99	2654.17
618.14	2586.29
618.29	2516.08
618.45	2504.37
618.60	2576.93
618.75	2537.14
618.90	2497.35
619.06	2569.91
619.21	2565.23
619.36	2635.44
619.51	2590.97
619.67	2553.52
619.82	2553.52
619.97	2485.65
620.12	2499.69
620.28	2555.86
620.43	2576.93
620.58	2502.03
620.73	2588.63
620.89	2420.11
621.04	2520.76
621.19	2443.52
621.34	2511.39
621.49	2621.40
621.65	2487.99
621.80	2429.48
621.95	2410.75
622.10	2413.09
622.25	2502.03
622.41	2445.86
622.56	2265.64
622.71	2354.58
622.86	2406.07
623.01	2420.11
623.16	2392.03
623.32	2485.65
623.47	2530.12
623.62	2342.88
623.77	2326.49
623.92	2338.20
624.07	2216.49
624.23	2260.96
624.38	2354.58
624.53	2146.27
624.68	2258.62
624.83	2260.96
624.98	2197.76
625.13	2293.72
625.29	2204.78
625.44	2265.64
625.59	2235.21
625.74	2258.62
625.89	2305.43
626.04	2331.17
626.19	2347.56
626.34	2307.77
626.49	2354.58
626.65	2385.01
626.80	2277.34
626.95	2310.11
627.10	2195.42
627.25	2279.68
627.40	2214.15
627.55	2181.38
627.70	2029.24
627.85	2071.37
628.00	2015.20
628.15	2085.42
628.30	2186.06
628.45	2099.46
628.60	2134.57
628.76	2165.00
628.91	2129.89
629.06	2097.12
629.21	2101.80
629.36	2120.53
629.51	2108.82
629.66	2179.04
629.81	2153.29
629.96	2012.86
630.11	2087.76
630.26	2064.35
630.41	2057.33
630.56	2176.70
630.71	2157.97
630.86	1996.48
631.01	2104.14
631.16	2115.84
631.31	2099.46
631.46	2073.71
631.61	2017.54
631.76	2186.06
631.91	2125.21
632.06	2111.16
632.21	2040.95
632.36	2057.33
632.51	2122.87
632.66	2076.06
632.81	1919.24
632.96	2038.61
633.10	2127.55
633.25	2001.16
633.40	2113.50
633.55	2019.88
633.70	2111.16
633.85	2024.56
634.00	2094.78
634.15	1905.20
634.30	2052.65
634.45	1919.24
634.60	2057.33
634.75	1935.62
634.90	2069.03
635.05	2146.27
635.19	2090.10
635.34	2022.22
635.49	1989.46
635.64	2122.87
635.79	1994.14
635.94	1956.69
636.09	1921.58
636.24	1980.09
636.39	1923.92
636.53	1886.47
636.68	1977.75
636.83	1952.01
636.98	2111.16
637.13	2073.71
637.28	2022.22
637.43	2043.29
637.57	1980.09
637.72	2001.16
637.87	1998.82
638.02	2031.58
638.17	1893.49
638.32	1947.33
638.46	1956.69
638.61	1947.33
638.76	1959.03
638.91	1895.83
639.06	1891.15
639.20	1844.34
639.35	1968.39
639.50	1856.04
639.65	1839.66
639.80	1867.75
639.94	1792.85
640.09	1949.67
640.24	1902.86
640.39	1830.30
640.54	1832.64
640.68	2008.18
640.83	1937.96
640.98	1827.96
641.13	1902.86
641.27	1928.60
641.42	1804.55
641.57	1797.53
641.72	1715.61
641.86	1856.04
642.01	1900.52
642.16	1940.30
642.31	1825.62
642.45	1891.15
642.60	1872.43
642.75	1799.87
642.90	1771.79
643.04	1933.28
643.19	1792.85
643.34	1849.02
643.48	1788.17
643.63	1774.13
643.78	1771.79
643.93	1844.34
644.07	1839.66
644.22	1891.15
644.37	1734.34
644.51	1865.41
644.66	1844.34
644.81	1764.76
644.95	1724.97
645.10	1732.00
645.25	1802.21
645.39	1769.44
645.54	1762.42
645.69	1715.61
645.83	1692.21
645.98	1699.23
646.13	1659.44
646.27	1783.49
646.42	1799.87
646.57	1813.92
646.71	1682.85
646.86	1638.38
647.00	1673.48
647.15	1640.72
647.30	1696.89
647.44	1710.93
647.59	1659.44
647.74	1708.59
647.88	1682.85
648.03	1598.59
648.17	1619.65
648.32	1631.35
648.47	1675.82
648.61	1680.50
648.76	1650.08
648.90	1762.42
649.05	1521.35
649.20	1544.75
649.34	1664.12
649.49	1519.01
649.63	1579.86
649.78	1579.86
649.92	1603.27
650.07	1617.31
650.21	1565.82
650.36	1605.61
650.51	1598.59
650.65	1685.19
650.80	1708.59
650.94	1673.48
651.09	1533.05
651.23	1673.48
651.38	1563.48
651.52	1650.08
651.67	1577.52
651.81	1535.39
651.96	1610.29
652.10	1598.59
652.25	1720.29
652.39	1549.43
652.54	1645.40
652.68	1645.40
652.83	1500.28
652.97	1589.22
653.12	1519.01
653.26	1577.52
653.41	1659.44
653.55	1509.65
653.70	1675.82
653.84	1568.16
653.99	1619.65
654.13	1563.48
654.27	1493.26
654.42	1448.79
654.56	1430.07
654.71	1441.77
654.85	1577.52
655.00	1469.86
655.14	1504.96
655.29	1479.22
655.43	1455.81
655.57	1261.55
655.72	1212.40
655.86	1198.35
656.01	1067.28
656.15	1053.24
656.30	1196.01
656.44	1210.06
656.58	1238.14
656.73	1406.66
656.87	1336.45
657.01	1390.28
657.16	1427.73
657.30	1409.00
657.45	1441.77
657.59	1411.34
657.73	1561.14
657.88	1493.26
658.02	1523.69
658.16	1390.28
658.31	1516.67
658.45	1460.49
658.60	1409.00
658.74	1437.09
658.88	1425.39
659.03	1371.55
659.17	1401.98
659.31	1425.39
659.46	1378.58
659.60	1373.89
659.74	1504.96
659.89	1479.22
660.03	1423.05
660.17	1542.41
660.32	1617.31
660.46	1364.53
660.60	1479.22
660.74	1411.34
660.89	1394.96
661.03	1392.62
661.17	1399.64
661.32	1495.60
661.46	1448.79
661.60	1434.75
661.74	1432.41
661.89	1432.41
662.03	1418.36
662.17	1481.56
662.31	1474.54
662.46	1364.53
662.60	1390.28
662.74	1327.08
662.88	1270.91
663.03	1394.96
663.17	1401.98
663.31	1291.98
663.45	1303.68
663.60	1444.11
663.74	1322.40
663.88	1348.15
664.02	1387.94
664.17	1310.70
664.31	1322.40
664.45	1287.29
664.59	1462.83
664.73	1320.06
664.88	1329.42
665.02	1245.16
665.16	1313.04
665.30	1322.40
665.44	1261.55
665.59	1334.11
665.73	1336.45
665.87	1268.57
666.01	1359.85
666.15	1261.55
666.29	1217.08
666.44	1357.51
666.58	1203.04
666.72	1249.85
666.86	1287.29
667.00	1299.00
667.14	1268.57
667.28	1231.12
667.43	1275.59
667.57	1291.98
667.71	1198.35
667.85	1350.49
667.99	1217.08
668.13	1172.61
668.27	1324.74
668.41	1273.25
668.56	1331.76
668.70	1224.10
668.84	1329.42
668.98	1226.44
669.12	1308.36
669.26	1252.19
669.40	1242.82
669.54	1245.16
669.68	1214.74
669.82	1177.29
669.96	1125.80
670.10	1186.65
670.25	1179.63
670.39	1172.61
670.53	1177.29
670.67	1238.14
670.81	1114.10
670.95	1172.61
671.09	1146.86
671.23	1109.41
671.37	1163.25
671.51	1097.71
671.65	1163.25
671.79	1137.50
671.93	1048.56
672.07	1116.44
672.21	1144.52
672.35	1107.07
672.49	1114.10
672.63	1128.14
672.77	1076.65
672.91	1121.12
673.05	1053.24
673.19	1125.80
673.33	1221.76
673.47	1104.73
673.61	1111.75
673.75	1071.97
673.89	1048.56
674.03	1086.01
674.17	1142.18
674.31	1062.60
674.45	1039.20
674.59	1034.52
674.73	1114.10
674.87	1027.50
675.01	1004.09
675.15	990.05
675.29	908.13
675.43	1102.39
675.56	1057.92
675.70	1067.28
675.84	985.37
675.98	1060.26
676.12	999.41
676.26	1060.26
676.40	1015.79
676.54	990.05
676.68	964.30
676.82	978.34
676.96	980.68
677.10	945.58
677.23	943.24
677.37	990.05
677.51	1060.26
677.65	1027.50
677.79	968.98
677.93	985.37
678.07	912.81
678.21	849.61
678.34	959.62
678.48	954.94
678.62	1001.75
678.76	945.58
678.90	945.58
679.04	1032.18
679.18	917.49
679.31	858.98
679.45	938.55
679.59	924.51
679.73	877.70
679.87	828.55
680.00	910.47
680.14	816.85
680.28	917.49
680.42	880.04
680.56	870.68
680.70	851.96
680.83	887.06
680.97	922.17
681.11	931.53
681.25	954.94
681.39	849.61
681.52	821.53
681.66	826.21
681.80	858.98
681.94	873.02
682.07	922.17
682.21	847.27
682.35	842.59
682.49	919.83
682.62	791.10
682.76	786.42
682.90	807.48
683.04	854.30
683.17	812.17
683.31	720.88
683.45	755.99
683.59	746.63
683.72	800.46
683.86	805.14
684.00	748.97
684.13	699.82
684.27	734.93
684.41	774.72
684.55	753.65
684.68	774.72
684.82	765.36
684.96	692.80
685.09	699.82
685.23	786.42
685.37	741.95
685.50	664.71
685.64	744.29
685.78	655.35
685.91	767.70
686.05	725.57
686.19	645.99
686.32	615.56
686.46	601.52
686.60	435.34
686.73	404.91
686.87	344.06
687.01	276.18
687.14	346.40
687.28	404.91
687.42	397.89
687.55	449.38
687.69	491.51
687.82	557.05
687.96	580.45
688.10	568.75
688.23	512.58
688.37	505.56
688.50	531.30
688.64	531.30
688.78	510.24
688.91	528.96
689.05	454.06
689.18	484.49
689.32	528.96
689.46	535.98
689.59	552.37
689.73	472.79
689.86	472.79
690.00	437.68
690.13	411.93
690.27	498.53
690.41	528.96
690.54	547.69
690.68	451.72
690.81	475.13
690.95	505.56
691.08	486.83
691.22	498.53
691.35	503.22
691.49	447.04
691.62	496.19
691.76	465.77
691.89	517.26
692.03	519.60
692.16	528.96
692.30	486.83
692.43	407.25
692.57	456.40
692.70	428.32
692.84	428.32
692.97	484.49
693.11	498.53
693.24	486.83
693.38	449.38
693.51	437.68
693.65	425.98
693.78	379.17
693.92	407.25
694.05	346.40
694.19	381.51
694.32	461.09
694.45	348.74
694.59	507.90
694.72	395.55
694.86	400.23
694.99	388.53
695.13	430.66
695.26	372.15
695.39	301.93
695.53	423.64
695.66	365.12
695.80	470.45
695.93	411.93
696.07	395.55
696.20	416.62
696.33	482.15
696.47	430.66
696.60	365.12
696.73	458.74
696.87	390.87
697.00	472.79
697.14	390.87
697.27	418.96
697.40	341.72
697.54	402.57
697.67	325.33
697.80	482.15
697.94	395.55
698.07	355.76
698.21	402.57
698.34	402.57
698.47	409.59
698.61	290.23
698.74	365.12
698.87	301.93
699.01	341.72
699.14	325.33
699.27	264.48
699.40	304.27
699.54	339.38
699.67	315.97
699.80	290.23
699.94	290.23
700.07	353.42
700.20	285.55
700.34	252.78
700.47	318.31
700.60	259.80
700.73	243.42
700.87	278.52
701.00	294.91
701.13	229.37
701.26	355.76
701.40	234.05
701.53	248.10
701.66	234.05
701.79	280.86
701.93	301.93
702.06	182.56
702.19	362.78
702.32	252.78
702.46	337.04
702.59	198.95
702.72	278.52
702.85	308.95
702.99	198.95
703.12	220.01
703.25	220.01
703.38	259.80
703.51	266.82
703.65	175.54
703.78	217.67
703.91	227.03
704.04	227.03
704.17	276.18
704.31	210.65
704.44	205.97
704.57	245.76
704.70	196.60
704.83	191.92
704.96	224.69
705.10	203.63
705.23	227.03
>>>>>End Processed Spectral Data<<<<<
