SpectraSuite Data File
++++++++++++++++++++++++++++++++++++
Date: Mon Oct 07 14:54:57 GMT-05:00 2013
User: price-jones
Dark Spectrum Present: No
Reference Spectrum Present: No
Number of Sampled Component Spectra: 1
Spectrometers: USB2+H05261
Integration Time (usec): 10000 (USB2+H05261)
Spectra Averaged: 1 (USB2+H05261)
Boxcar Smoothing: 0 (USB2+H05261)
Correct for Electrical Dark: No (USB2+H05261)
Strobe/Lamp Enabled: No (USB2+H05261)
Correct for Detector Non-linearity: No (USB2+H05261)
Correct for Stray Light: No (USB2+H05261)
Number of Pixels in Processed Spectrum: 2048
>>>>>Begin Processed Spectral Data<<<<<
365.73	0.00
365.92	0.00
366.12	0.00
366.32	0.00
366.52	0.00
366.72	0.00
366.91	0.00
367.11	0.00
367.31	0.00
367.51	0.00
367.70	0.00
367.90	0.00
368.10	0.00
368.30	0.00
368.49	0.00
368.69	0.00
368.89	0.00
369.09	0.00
369.28	0.00
369.48	0.00
369.68	0.00
369.87	0.00
370.07	0.00
370.27	0.00
370.47	596.84
370.66	3077.80
370.86	3679.32
371.06	3929.76
371.25	3904.01
371.45	3468.67
371.65	3176.11
371.84	3000.57
372.04	3403.14
372.24	3676.98
372.44	3698.05
372.63	3627.83
372.83	3330.58
373.03	2974.82
373.22	2778.22
373.42	2991.20
373.62	3531.87
373.81	3714.43
374.01	3529.53
374.21	3089.51
374.40	3035.67
374.60	3269.73
374.79	3861.88
374.99	4365.10
375.19	4545.32
375.38	4390.84
375.58	4173.18
375.78	4095.94
375.97	4184.88
376.17	4327.65
376.37	4311.27
376.56	4571.07
376.76	4791.08
376.95	5151.52
377.15	5547.07
377.35	5575.16
377.54	6092.41
377.74	6235.19
377.93	6164.97
378.13	5891.13
378.33	5486.22
378.52	5128.11
378.72	4786.40
378.91	4957.25
379.11	4819.16
379.31	4660.01
379.50	4727.88
379.70	5193.65
379.89	5710.91
380.09	5968.37
380.28	6122.84
380.48	6019.86
380.68	5963.68
380.87	5568.13
381.07	5275.57
381.26	4692.77
381.46	4472.76
381.65	4325.31
381.85	4264.46
382.04	3936.78
382.24	3836.14
382.43	3662.94
382.63	3630.17
382.83	3524.85
383.02	3625.49
383.22	3686.34
383.41	3709.75
383.61	3906.35
383.80	4519.57
384.00	5308.34
384.19	5905.17
384.39	5888.79
384.58	6008.16
384.78	5914.53
384.97	5816.23
385.17	5378.55
385.36	5240.46
385.56	5071.94
385.75	5380.89
385.95	5891.13
386.14	6204.76
386.34	6132.20
386.53	5834.96
386.72	5441.75
386.92	5738.99
387.11	5989.43
387.31	6155.61
387.50	6005.81
387.70	5872.40
387.89	5863.04
388.09	6024.54
388.28	5937.94
388.48	6132.20
388.67	6502.01
388.86	7108.21
389.06	7733.13
389.25	8072.51
389.45	8049.10
389.64	8039.74
389.84	7896.97
390.03	7620.78
390.22	8042.08
390.42	8318.26
390.61	9039.15
390.81	9341.08
391.00	9549.39
391.19	9303.63
391.39	8849.57
391.58	8493.80
391.78	8109.96
391.97	7719.09
392.16	7126.93
392.36	6303.06
392.55	4999.38
392.75	3922.74
392.94	3272.07
393.13	3627.83
393.33	4348.72
393.52	5476.85
393.71	6539.46
393.91	7342.26
394.10	8093.57
394.29	9004.04
394.49	9582.15
394.68	10045.58
394.88	10162.61
395.07	10499.64
395.26	10244.52
395.46	9834.93
395.65	8999.36
395.84	7934.42
396.04	6572.22
396.23	5376.21
396.42	4629.58
396.62	4636.60
396.81	5612.60
397.00	7227.57
397.19	8870.63
397.39	10513.69
397.58	11585.65
397.77	12271.43
397.97	12704.43
398.16	12521.87
398.35	13341.05
398.55	13624.26
398.74	14476.21
398.93	14253.86
399.12	14267.91
399.32	13626.60
399.51	14239.82
399.70	15236.89
399.90	14656.43
400.09	14806.23
400.28	14642.39
400.47	15295.40
400.67	15936.71
400.86	16123.95
401.05	16128.63
401.24	15791.59
401.44	16393.11
401.63	16262.04
401.82	16582.70
402.01	16652.91
402.21	16582.70
402.40	16582.70
402.59	15812.66
402.78	15290.72
402.97	15040.28
403.17	15988.20
403.36	16929.09
403.55	17224.00
403.74	17453.37
403.93	16444.60
404.13	14916.23
404.32	15351.57
404.51	16334.60
404.70	17308.26
404.89	16982.93
405.09	16517.16
405.28	15917.98
405.47	16198.85
405.66	16067.78
405.85	15566.90
406.05	15527.11
406.24	16016.29
406.43	16776.96
406.62	17401.88
406.81	17057.82
407.00	16631.85
407.20	16142.67
407.39	16360.34
407.58	17125.70
407.77	17881.69
407.96	18223.41
408.15	18853.02
408.34	18925.57
408.54	19545.81
408.73	19868.81
408.92	19077.71
409.11	18375.55
409.30	17446.35
409.49	16599.08
409.68	15384.34
409.87	15592.65
410.07	16856.54
410.26	17834.88
410.45	19021.53
410.64	19389.00
410.83	19810.29
411.02	20580.33
411.21	20711.40
411.40	20346.28
411.59	20570.97
411.78	20538.20
411.98	20528.84
412.17	20861.19
412.36	20552.24
412.55	20322.87
412.74	19765.82
412.93	19754.12
413.12	20184.78
413.31	21958.91
413.50	21362.07
413.69	21935.50
413.88	21181.85
414.07	20952.48
414.26	21355.05
414.45	21668.68
414.64	21830.18
414.83	21991.67
415.02	21624.21
415.22	21752.94
415.41	22253.81
415.60	22923.21
415.79	23892.19
415.98	23988.15
416.17	23866.44
416.36	23379.61
416.55	23510.68
416.74	22164.87
416.93	21546.97
417.12	21752.94
417.31	22064.23
417.50	22607.23
417.69	23080.02
417.88	23009.81
418.07	23058.96
418.26	22448.08
418.45	23316.42
418.64	23840.70
418.83	24989.90
419.02	24290.08
419.21	23831.33
419.39	22981.72
419.58	21926.14
419.77	22436.38
419.96	23545.79
420.15	24907.98
420.34	25174.80
420.53	25972.92
420.72	26691.47
420.91	26129.74
421.10	25486.09
421.29	25928.45
421.48	24950.11
421.67	25715.47
421.86	25085.86
422.05	23058.96
422.24	21020.35
422.43	21743.58
422.61	24477.32
422.80	25186.50
422.99	24989.90
423.18	23880.49
423.37	23672.18
423.56	24479.66
423.75	24294.76
423.94	25261.40
424.13	23695.58
424.32	23398.34
424.50	23440.47
424.69	23484.94
424.88	23520.04
425.07	23749.42
425.26	23358.55
425.45	22731.28
425.64	22614.26
425.83	23164.28
426.01	24737.12
426.20	24748.82
426.39	24418.81
426.58	22195.30
426.77	21273.13
426.96	20753.53
427.15	21912.10
427.33	23241.52
427.52	24151.99
427.71	24077.09
427.90	23913.25
428.09	23175.98
428.28	22876.40
428.46	21804.43
428.65	22115.72
428.84	22916.19
429.03	22771.07
429.22	21125.68
429.40	19950.73
429.59	18258.52
429.78	16163.74
429.97	16868.24
430.16	16776.96
430.34	16475.03
430.53	16350.98
430.72	17460.40
430.91	20067.75
431.10	23688.56
431.28	27597.26
431.47	29032.00
431.66	28465.60
431.85	26024.42
432.03	23538.77
432.22	23740.05
432.41	25163.10
432.60	26965.31
432.79	28098.13
432.97	28301.76
433.16	27557.47
433.35	24376.68
433.54	22017.42
433.72	21397.18
433.91	22909.16
434.10	25481.41
434.28	27023.83
434.47	28053.66
434.66	27150.21
434.85	26415.29
435.03	27115.11
435.22	27548.11
435.41	28627.09
435.59	28835.40
435.78	29312.87
435.97	30092.27
436.16	30415.26
436.34	29390.11
436.53	29289.46
436.72	29198.18
436.90	28011.53
437.09	27470.87
437.28	28151.96
437.46	29106.90
437.65	28430.49
437.84	25596.10
438.02	24531.15
438.21	24959.47
438.40	26251.45
438.58	28123.88
438.77	28961.79
438.96	29376.06
439.14	30864.64
439.33	30813.15
439.52	30906.77
439.70	30052.48
439.89	29120.95
440.08	28723.05
440.26	29383.09
440.45	30150.78
440.63	32315.78
440.82	33773.93
441.01	32786.22
441.19	32463.23
441.38	33895.64
441.57	35112.72
441.75	34059.48
441.94	34452.69
442.12	34359.06
442.31	35906.16
442.50	35786.79
442.68	35400.60
442.87	34288.85
443.05	34125.01
443.24	35718.92
443.43	35938.93
443.61	36271.28
443.80	36652.79
443.98	35110.38
444.17	35204.00
444.35	36945.36
444.54	37153.66
444.73	36608.32
444.91	34029.05
445.10	33727.12
445.28	31852.35
445.47	31557.44
445.65	31908.52
445.84	33563.28
446.02	34574.39
446.21	35414.65
446.39	34562.69
446.58	36016.16
446.77	36290.01
446.95	36133.19
447.14	37785.61
447.32	37729.44
447.51	36514.70
447.69	35051.86
447.88	35360.81
448.06	36182.34
448.25	36657.47
448.43	36233.83
448.62	35981.06
448.80	36163.62
448.99	35735.30
449.17	36488.95
449.36	36304.05
449.54	38082.86
449.73	38553.30
449.91	38998.01
450.10	40364.88
450.28	40910.22
450.46	40006.78
450.65	40404.67
450.83	39313.98
451.02	38457.34
451.20	38522.88
451.39	38579.05
451.57	39023.75
451.76	38862.26
451.94	38663.31
452.13	36935.99
452.31	36165.96
452.49	35590.19
452.68	35931.90
452.86	34824.83
453.05	35594.87
453.23	37598.37
453.42	38429.26
453.60	38532.24
453.78	39182.91
453.97	38469.04
454.15	38932.47
454.34	37399.42
454.52	37731.78
454.70	36746.41
454.89	37603.05
455.07	37507.08
455.26	38354.36
455.44	39864.00
455.62	40460.84
455.81	40215.08
455.99	39318.66
456.17	39676.76
456.36	40355.52
456.54	40517.01
456.73	40367.22
456.91	41453.23
457.09	41911.97
457.28	41804.31
457.46	40205.72
457.64	39988.05
457.83	38684.37
458.01	38925.45
458.19	40257.21
458.38	41111.51
458.56	41247.26
458.74	40294.66
458.93	40402.33
459.11	40205.72
459.29	39634.63
459.48	39746.98
459.66	39821.87
459.84	40161.25
460.03	39962.31
460.21	40954.69
460.39	42387.10
460.57	40947.67
460.76	41776.22
460.94	41792.61
461.12	40917.25
461.31	41926.02
461.49	41734.09
461.67	41502.38
461.85	42941.81
462.04	42590.73
462.22	42581.37
462.40	43112.67
462.59	42911.38
462.77	42761.59
462.95	42520.51
463.13	42780.31
463.32	42249.01
463.50	42623.50
463.68	42043.04
463.86	41666.22
464.05	41315.14
464.23	39957.63
464.41	39746.98
464.59	40208.06
464.78	42019.64
464.96	41542.17
465.14	41486.00
465.32	41794.95
465.50	43187.56
465.69	43543.33
465.87	42438.59
466.05	40573.19
466.23	38913.75
466.41	38941.83
466.60	40767.45
466.78	40196.36
466.96	40243.17
467.14	41408.76
467.32	41516.42
467.51	41911.97
467.69	40451.48
467.87	41034.27
468.05	42134.32
468.23	41996.23
468.41	42319.23
468.60	42555.62
468.78	42483.06
468.96	41951.76
469.14	42834.14
469.32	42508.81
469.50	41048.32
469.69	41549.19
469.87	40559.14
470.05	40973.42
470.23	40755.75
470.41	40921.93
470.59	42134.32
470.77	41621.75
470.95	42134.32
471.14	43239.06
471.32	43112.67
471.50	45483.63
471.68	44957.01
471.86	46040.68
472.04	46312.18
472.22	45588.95
472.40	43536.30
472.58	43426.30
472.77	42895.00
472.95	44065.27
473.13	44772.11
473.31	43526.94
473.49	44170.59
473.67	44587.21
473.85	45186.38
474.03	46906.68
474.21	46878.59
474.39	47540.96
474.57	47503.51
474.75	46005.57
474.93	45827.69
475.12	45195.74
475.30	46176.43
475.48	46094.51
475.66	46990.94
475.84	45996.21
476.02	45638.11
476.20	44844.66
476.38	45546.82
476.56	47313.93
476.74	47962.26
476.92	47620.54
477.10	49233.17
477.28	49308.07
477.46	48999.12
477.64	49045.93
477.82	49954.05
478.00	49577.23
478.18	49722.34
478.36	49017.84
478.54	50134.28
478.72	50281.73
478.90	50356.63
479.08	51842.87
479.26	51552.64
479.44	51531.57
479.62	52016.07
479.80	51732.86
479.98	51927.13
480.16	52589.50
480.34	51824.14
480.52	52659.71
480.70	51571.36
480.88	52753.33
481.06	53055.26
481.24	53191.01
481.41	53401.66
481.59	53570.18
481.77	53282.30
481.95	52999.09
482.13	53003.77
482.31	53315.06
482.49	53521.03
482.67	53656.78
482.85	54021.90
483.03	54548.53
483.21	54167.02
483.39	54635.13
483.57	53705.93
483.74	53972.75
483.92	54164.68
484.10	54319.15
484.28	55063.44
484.46	55608.79
484.64	55934.12
484.82	54897.27
485.00	54340.22
485.18	53385.28
485.35	52886.74
485.53	49158.27
485.71	46234.94
485.89	47508.19
486.07	49684.89
486.25	51824.14
486.43	53347.83
486.61	53989.14
486.78	54026.59
486.96	54426.82
487.14	55374.73
487.32	55856.88
487.50	56617.56
487.68	56921.83
487.85	57125.46
488.03	57092.69
488.21	57130.14
488.39	56619.90
488.57	56615.22
488.75	56385.85
488.92	57539.73
489.10	59379.39
489.28	59985.59
489.46	60308.58
489.64	59751.54
489.81	60402.21
489.99	59920.05
490.17	60264.11
490.35	60413.91
490.53	60025.38
490.70	60006.65
490.88	60062.83
491.06	60680.73
491.24	60343.69
491.41	59199.17
491.59	58588.29
491.77	58211.46
491.95	59058.74
492.13	60109.64
492.30	60853.93
492.48	61228.41
492.66	61460.13
492.84	61329.06
493.01	61113.73
493.19	60839.89
493.37	61048.19
493.54	60877.33
493.72	61989.09
493.90	62061.64
494.08	62550.82
494.25	62494.64
494.43	62529.75
494.61	63023.61
494.79	62892.54
494.96	63119.57
495.14	62578.90
495.32	61635.67
495.49	61654.39
495.67	62707.63
495.85	63299.79
496.02	63332.56
496.20	63613.42
496.38	63009.56
496.55	62836.36
496.73	63295.11
496.91	63735.13
497.09	64156.42
497.26	64327.28
497.44	63664.91
497.62	62700.61
497.79	61928.23
497.97	61146.50
498.14	61769.08
498.32	62752.10
498.50	63868.54
498.67	64430.27
498.85	63707.04
499.03	63812.37
499.20	63711.72
499.38	63831.09
499.56	63793.64
499.73	63327.87
499.91	63360.64
500.08	62445.49
500.26	62171.65
500.44	62628.05
500.61	63440.22
500.79	63325.53
500.97	62878.49
501.14	62836.36
501.32	62695.93
501.49	62906.58
501.67	63065.73
501.84	63547.89
502.02	63529.16
502.20	63243.62
502.37	63353.62
502.55	63838.11
502.72	64310.90
502.90	64858.59
503.07	64224.30
503.25	63941.10
503.43	63559.59
503.60	62436.13
503.78	62611.67
503.95	63149.99
504.13	63990.25
504.30	64830.50
504.48	64631.55
504.65	63683.64
504.83	64008.97
505.01	64872.63
505.18	65057.53
505.36	65535.00
505.53	65535.00
505.71	65535.00
505.88	65289.24
506.06	65197.96
506.23	65188.60
506.41	64713.47
506.58	64956.89
506.76	64849.22
506.93	64596.45
507.11	64062.80
507.28	64657.30
507.46	64357.71
507.63	64470.06
507.81	63887.26
507.98	64140.04
508.16	64676.02
508.33	65535.00
508.50	65535.00
508.68	65535.00
508.85	65535.00
509.03	65535.00
509.20	65474.15
509.38	64701.77
509.55	64706.45
509.73	64984.97
509.90	65090.30
510.08	65050.51
510.25	64881.99
510.42	64626.87
510.60	64687.73
510.77	65221.37
510.95	65219.03
511.12	65247.11
511.30	65535.00
511.47	65535.00
511.64	65535.00
511.82	65535.00
511.99	65535.00
512.17	65008.38
512.34	64437.29
512.51	64589.42
512.69	65172.22
512.86	65324.35
513.04	65331.37
513.21	64807.09
513.38	64844.54
513.56	64811.77
513.73	64198.55
513.90	63861.52
514.08	64617.51
514.25	64685.39
514.43	64933.48
514.60	64769.64
514.77	65249.45
514.95	65008.38
515.12	65296.27
515.29	65535.00
515.47	65535.00
515.64	65535.00
515.81	65408.61
515.99	64243.02
516.16	62922.96
516.33	61476.51
516.51	60416.25
516.68	59346.62
516.85	59803.03
517.03	61682.48
517.20	63592.36
517.37	64559.00
517.54	65373.50
517.72	64247.71
517.89	61759.72
518.06	61312.67
518.24	61970.36
518.41	63367.66
518.58	64659.64
518.75	64044.08
518.93	64334.31
519.10	64013.65
519.27	64079.19
519.45	64893.69
519.62	65535.00
519.79	65535.00
519.96	65535.00
520.14	65387.55
520.31	64409.20
520.48	64919.44
520.65	64970.93
520.83	65535.00
521.00	65535.00
521.17	65275.20
521.34	65197.96
521.52	65535.00
521.69	65535.00
521.86	65535.00
522.03	65535.00
522.20	65045.83
522.38	64500.48
522.55	64418.56
522.72	65127.75
522.89	64654.96
523.07	64554.32
523.24	65296.27
523.41	65535.00
523.58	65535.00
523.75	65535.00
523.92	65535.00
524.10	65535.00
524.27	65535.00
524.44	65535.00
524.61	65535.00
524.78	65535.00
524.96	65532.66
525.13	65535.00
525.30	65535.00
525.47	65535.00
525.64	65535.00
525.81	65535.00
525.98	64638.57
526.16	63475.33
526.33	62403.36
526.50	62150.59
526.67	62857.43
526.84	63561.93
527.01	64170.47
527.18	64537.93
527.36	65535.00
527.53	65535.00
527.70	65535.00
527.87	65535.00
528.04	65535.00
528.21	65535.00
528.38	65535.00
528.55	65535.00
528.72	65535.00
528.89	65535.00
529.07	65535.00
529.24	65535.00
529.41	65120.73
529.58	65436.70
529.75	65535.00
529.92	65535.00
530.09	65535.00
530.26	65535.00
530.43	65535.00
530.60	65535.00
530.77	65535.00
530.94	65535.00
531.11	65535.00
531.28	65535.00
531.46	65535.00
531.63	65535.00
531.80	65535.00
531.97	65535.00
532.14	64898.37
532.31	63557.25
532.48	62878.49
532.65	63795.98
532.82	64654.96
532.99	65535.00
533.16	65535.00
533.33	65535.00
533.50	65535.00
533.67	65535.00
533.84	65314.99
534.01	65535.00
534.18	65535.00
534.35	65535.00
534.52	65525.64
534.69	65535.00
534.86	65535.00
535.03	65535.00
535.20	65535.00
535.37	65535.00
535.54	65535.00
535.71	65535.00
535.88	65535.00
536.05	65535.00
536.22	65535.00
536.38	65535.00
536.55	65244.77
536.72	64994.34
536.89	65087.96
537.06	65535.00
537.23	65535.00
537.40	65535.00
537.57	65535.00
537.74	65102.00
537.91	65535.00
538.08	65535.00
538.25	65535.00
538.42	65535.00
538.59	65535.00
538.75	65432.02
538.92	65535.00
539.09	65270.52
539.26	64631.55
539.43	64626.87
539.60	64750.92
539.77	64395.16
539.94	64137.70
540.11	64383.46
540.28	63444.90
540.44	64121.32
540.61	63805.34
540.78	64910.08
540.95	64652.62
541.12	64912.42
541.29	65153.49
541.46	65535.00
541.62	65535.00
541.79	65268.18
541.96	64100.25
542.13	64514.53
542.30	64975.61
542.47	64228.98
542.63	64640.92
542.80	64559.00
542.97	64441.97
543.14	64671.34
543.31	64577.72
543.48	65314.99
543.64	65535.00
543.81	65535.00
543.98	65535.00
544.15	65396.91
544.32	64863.27
544.48	65525.64
544.65	65535.00
544.82	65535.00
544.99	65535.00
545.16	65535.00
545.32	65090.30
545.49	65535.00
545.66	65535.00
545.83	65535.00
546.00	65535.00
546.16	65249.45
546.33	65396.91
546.50	64711.13
546.67	64989.66
546.83	64917.10
547.00	63948.12
547.17	63924.71
547.34	63512.78
547.50	63854.50
547.67	63681.30
547.84	64411.54
548.00	65359.46
548.17	65104.34
548.34	64928.80
548.51	65073.91
548.67	65303.29
548.84	65338.40
549.01	64846.88
549.18	64647.94
549.34	64448.99
549.51	64631.55
549.68	64867.95
549.84	63959.82
550.01	64779.01
550.18	64942.84
550.34	65293.92
550.51	64535.59
550.68	64310.90
550.84	64130.68
551.01	64437.29
551.18	64793.05
551.34	64680.70
551.51	64940.50
551.68	64722.83
551.84	65387.55
552.01	65535.00
552.18	64755.60
552.34	63870.88
552.51	63594.70
552.68	63435.54
552.84	64516.87
553.01	64353.03
553.18	65027.10
553.34	64509.85
553.51	64711.13
553.67	65071.57
553.84	64811.77
554.01	64835.18
554.17	65059.87
554.34	64395.16
554.51	64507.50
554.67	64727.52
554.84	64935.82
555.00	65303.29
555.17	64933.48
555.33	65179.24
555.50	64701.77
555.67	64416.22
555.83	64392.82
556.00	63615.76
556.16	63786.62
556.33	63749.17
556.50	63192.12
556.66	62890.19
556.83	63505.76
556.99	63732.79
557.16	63910.67
557.32	64046.42
557.49	63814.71
557.65	63758.53
557.82	64189.19
557.98	64217.28
558.15	63707.04
558.32	62265.27
558.48	62464.22
558.65	62347.19
558.81	63732.79
558.98	62852.75
559.14	63178.08
559.31	63030.63
559.47	63395.75
559.64	62927.64
559.80	62885.51
559.97	63360.64
560.13	63526.82
560.30	64657.30
560.46	64734.54
560.63	64954.55
560.79	64610.49
560.96	63655.55
561.12	62293.36
561.29	62623.37
561.45	63110.20
561.61	63124.25
561.78	63288.09
561.94	62918.28
562.11	63674.27
562.27	63302.13
562.44	63398.09
562.60	63800.66
562.77	63470.65
562.93	63360.64
563.10	63264.68
563.26	63079.78
563.42	63255.32
563.59	62326.13
563.75	63407.45
563.92	63582.99
564.08	63508.10
564.24	63487.03
564.41	63419.16
564.57	63135.95
564.74	62511.03
564.90	62511.03
565.07	62253.57
565.23	61970.36
565.39	62473.58
565.56	62405.70
565.72	62071.01
565.88	62232.50
566.05	62471.24
566.21	63309.15
566.38	63042.33
566.54	63388.73
566.70	63290.43
566.87	62684.23
567.03	63096.16
567.19	63913.01
567.36	62754.44
567.52	62660.82
567.68	62197.40
567.85	61965.68
568.01	61680.14
568.17	60900.74
568.34	60893.72
568.50	61277.57
568.66	61420.34
568.83	62445.49
568.99	61930.58
569.15	61621.62
569.32	61846.32
569.48	61233.10
569.64	61670.78
569.81	62185.69
569.97	61914.19
570.13	61249.48
570.30	60961.59
570.46	60278.16
570.62	60175.17
570.78	60540.30
570.95	60264.11
571.11	61158.20
571.27	62262.93
571.43	62216.12
571.60	62145.90
571.76	61668.44
571.92	61647.37
572.09	62181.01
572.25	62159.95
572.41	61656.73
572.57	62080.37
572.74	61820.57
572.90	61464.81
573.06	61675.46
573.22	61656.73
573.38	61469.49
573.55	62124.84
573.71	62974.45
573.87	62576.56
574.03	62089.73
574.20	61226.07
574.36	60603.49
574.52	60872.65
574.68	59803.03
574.84	59943.46
575.01	59657.91
575.17	60423.27
575.33	60498.17
575.49	61499.92
575.65	60846.91
575.82	60051.12
575.98	60189.22
576.14	60048.78
576.30	60336.67
576.46	60470.08
576.62	61095.00
576.79	61532.68
576.95	61296.29
577.11	61111.39
577.27	60416.25
577.43	60329.65
577.59	59915.37
577.75	59868.56
577.92	59627.49
578.08	59828.77
578.24	59650.89
578.40	60030.06
578.56	60439.65
578.72	60636.26
578.88	60030.06
579.04	59601.74
579.21	60687.75
579.37	60753.29
579.53	60133.04
579.69	60271.14
579.85	60928.83
580.01	60491.15
580.17	60362.42
580.33	60392.84
580.49	59255.34
580.65	60069.85
580.82	59758.56
580.98	59758.56
581.14	60814.14
581.30	60769.67
581.46	60900.74
581.62	61031.81
581.78	60130.70
581.94	60053.47
582.10	60067.51
582.26	61160.54
582.42	61378.21
582.58	61286.93
582.74	61626.31
582.90	61265.86
583.06	60872.65
583.22	61048.19
583.38	60608.17
583.54	59767.92
583.70	59323.22
583.86	59547.91
584.02	59447.27
584.18	59772.60
584.34	60306.24
584.50	61038.83
584.66	60186.88
584.82	59339.60
584.98	59344.28
585.14	60130.70
585.30	58721.70
585.46	58958.09
585.62	58997.88
585.78	59819.41
585.94	58700.64
586.10	59936.44
586.26	59524.50
586.42	59194.49
586.58	59063.42
586.74	59037.67
586.90	59086.82
587.06	59147.68
587.22	59121.93
587.38	59470.67
587.54	59889.63
587.70	59086.82
587.86	57993.79
588.02	58501.69
588.18	58122.52
588.34	56678.41
588.49	55246.00
588.65	54019.56
588.81	54185.74
588.97	54794.28
589.13	53937.65
589.29	54354.26
589.45	55107.91
589.61	55950.51
589.77	56844.59
589.93	57743.36
590.08	58674.89
590.24	58660.85
590.40	58375.30
590.56	59171.08
590.72	58749.79
590.88	58042.95
591.04	57621.65
591.20	57661.44
591.35	57254.18
591.51	57078.64
591.67	57649.74
591.83	57759.74
591.99	57801.87
592.15	57832.30
592.31	57876.77
592.46	56828.21
592.62	56589.47
592.78	57495.26
592.94	57663.78
593.10	58473.60
593.26	58094.44
593.41	57504.62
593.57	57221.42
593.73	56858.63
593.89	56788.42
594.05	56030.08
594.20	56605.86
594.36	56594.15
594.52	56755.65
594.68	56048.81
594.84	55894.33
594.99	55402.82
595.15	55655.60
595.31	56928.85
595.47	57113.75
595.62	56701.82
595.78	57698.89
595.94	57862.72
596.10	57715.27
596.25	57329.08
596.41	57907.19
596.57	57277.59
596.73	57249.50
596.88	56959.28
597.04	56594.15
597.20	56856.29
597.36	57670.80
597.51	56282.86
597.67	56182.22
597.83	55870.93
597.99	56175.20
598.14	56104.98
598.30	55334.95
598.46	54871.52
598.61	54412.77
598.77	55627.51
598.93	55166.43
599.09	55842.84
599.24	55398.14
599.40	55896.67
599.56	56631.60
599.71	56374.14
599.87	57146.52
600.03	56676.07
600.18	56465.42
600.34	55924.76
600.50	56903.10
600.65	55908.38
600.81	56369.46
600.97	57153.54
601.12	56474.79
601.28	57130.14
601.44	55248.35
601.59	54536.82
601.75	55356.01
601.91	55114.94
602.06	54618.74
602.22	55093.87
602.37	56121.37
602.53	55604.11
602.69	56027.74
602.84	54747.47
603.00	55306.86
603.16	55847.52
603.31	55655.60
603.47	54845.77
603.62	55028.34
603.78	55018.97
603.94	54841.09
604.09	55428.57
604.25	55730.50
604.40	56268.82
604.56	56193.92
604.71	56435.00
604.87	56975.66
605.03	55718.79
605.18	55386.44
605.34	55681.34
605.49	55304.52
605.65	55367.71
605.80	54431.50
605.96	54974.50
606.12	54611.72
606.27	55585.38
606.43	56193.92
606.58	55856.88
606.74	54906.63
606.89	56072.21
607.05	55583.04
607.20	55054.08
607.36	54307.45
607.51	53932.96
607.67	54138.93
607.82	54513.42
607.98	55512.83
608.13	55779.65
608.29	54588.31
608.44	54422.14
608.60	54752.15
608.75	54356.60
608.91	55325.58
609.06	54782.58
609.22	55054.08
609.37	55035.36
609.53	55166.43
609.68	54171.70
609.84	53202.72
609.99	54087.44
610.15	54078.08
610.30	54099.14
610.46	54085.10
610.61	54555.55
610.76	54562.57
610.92	54344.90
611.07	54967.48
611.23	54848.11
611.38	53916.58
611.54	53062.29
611.69	52191.61
611.84	51484.76
612.00	50635.15
612.15	51377.10
612.31	53638.06
612.46	53272.93
612.62	52640.99
612.77	52383.53
612.92	53158.25
613.08	52435.02
613.23	51224.96
613.39	51019.00
613.54	51208.58
613.69	51854.57
613.85	52306.29
614.00	51978.62
614.15	51831.16
614.31	51877.97
614.46	51894.36
614.62	51402.85
614.77	51299.86
614.92	51107.94
615.08	52271.18
615.23	52018.41
615.38	51416.89
615.54	49720.00
615.69	49825.32
615.84	50010.23
616.00	50443.23
616.15	50838.78
616.30	50960.48
616.46	50604.72
616.61	52355.44
616.76	51882.66
616.92	51690.73
617.07	51007.29
617.22	51178.15
617.37	50965.17
617.53	50574.30
617.68	50253.64
617.83	51711.80
617.99	50141.30
618.14	51538.60
618.29	52666.73
618.45	51716.48
618.60	51648.60
618.75	51840.53
618.90	51063.47
619.06	50798.99
619.21	50930.06
619.36	52512.26
619.51	51374.76
619.67	51442.63
619.82	51739.88
619.97	52231.40
620.12	51915.42
620.28	52603.54
620.43	51735.20
620.58	51257.73
620.73	50410.46
620.89	49310.41
621.04	49251.89
621.19	48683.14
621.34	49602.97
621.49	49305.73
621.65	48512.28
621.80	48046.52
621.95	48568.46
622.10	50117.89
622.25	49736.38
622.41	49752.77
622.56	49069.33
622.71	48971.03
622.86	47737.57
623.01	48961.67
623.16	47297.55
623.32	47978.64
623.47	48610.59
623.62	49226.15
623.77	48619.95
623.92	48968.69
624.07	47742.25
624.23	48322.70
624.38	48062.90
624.53	48076.94
624.68	46480.70
624.83	45631.08
624.98	45886.20
625.13	46981.57
625.29	47789.06
625.44	47000.30
625.59	48105.03
625.74	48596.54
625.89	47674.37
626.04	46426.87
626.19	47325.63
626.34	47569.05
626.49	46031.32
626.65	45516.40
626.80	45984.51
626.95	44533.37
627.10	45134.89
627.25	44149.53
627.40	44275.91
627.55	43531.62
627.70	43435.66
627.85	45081.06
628.00	45869.82
628.15	45481.29
628.30	45722.37
628.45	45951.74
628.60	46127.28
628.76	47091.58
628.91	45811.31
629.06	44285.28
629.21	45170.00
629.36	43419.28
629.51	44357.83
629.66	45874.50
629.81	45603.00
629.96	45713.00
630.11	45413.41
630.26	46394.10
630.41	44098.03
630.56	44133.14
630.71	44481.88
630.86	45184.04
631.01	44830.62
631.16	42953.51
631.31	42302.84
631.46	42572.00
631.61	42693.71
631.76	43267.14
631.91	44016.11
632.06	43934.20
632.21	43842.92
632.36	44713.59
632.51	44423.37
632.66	44240.81
632.81	44147.18
632.96	45375.97
633.10	44933.60
633.25	44568.48
633.40	45015.52
633.55	46143.66
633.70	43143.09
633.85	42356.67
634.00	42117.94
634.15	42747.54
634.30	41268.33
634.45	41319.82
634.60	42513.49
634.75	42663.28
634.90	41301.09
635.05	41258.96
635.19	42146.03
635.34	43728.23
635.49	43047.13
635.64	44044.20
635.79	41834.74
635.94	41778.56
636.09	42555.62
636.24	43615.88
636.39	43409.92
636.53	43433.32
636.68	43665.03
636.83	42916.06
636.98	42902.02
637.13	43133.73
637.28	43704.82
637.43	43344.38
637.57	44203.36
637.72	44395.28
637.87	44170.59
638.02	44612.95
638.17	43945.90
638.32	41490.68
638.46	42817.76
638.61	43749.29
638.76	42794.36
638.91	42607.11
639.06	42410.51
639.20	43096.28
639.35	42988.62
639.50	42382.42
639.65	42534.56
639.80	40938.31
639.94	41029.59
640.09	42499.45
640.24	42927.77
640.39	43075.22
640.54	41251.94
640.68	40629.36
640.83	41062.36
640.98	41219.17
641.13	39206.31
641.27	40968.74
641.42	42080.49
641.57	41577.28
641.72	42541.58
641.86	41888.57
642.01	40474.88
642.16	40620.00
642.31	40287.64
642.45	41418.12
642.60	40708.94
642.75	42270.08
642.90	42234.97
643.04	41783.24
643.19	40662.13
643.34	39220.36
643.48	39189.93
643.63	41214.49
643.78	40376.58
643.93	40697.24
644.07	39995.07
644.22	38916.09
644.37	38679.69
644.51	37589.00
644.66	39026.09
644.81	40554.46
644.95	39770.38
645.10	40966.40
645.25	41787.92
645.39	40704.26
645.54	38799.06
645.69	38192.86
645.83	38436.28
645.98	37043.66
646.13	36280.64
646.27	36821.31
646.42	38026.68
646.57	38895.02
646.71	37457.93
646.86	37008.55
647.00	38644.59
647.15	37170.05
647.30	37322.18
647.44	36905.57
647.59	36453.84
647.74	36392.99
647.88	36077.02
648.03	35463.80
648.17	37001.53
648.32	36163.62
648.47	36521.72
648.61	36226.81
648.76	36264.26
648.90	35702.53
649.05	35234.42
649.20	34637.59
649.34	35590.19
649.49	34808.45
649.63	36224.47
649.78	36575.55
649.92	37727.10
650.07	39735.27
650.21	39395.90
650.36	38813.10
650.51	37909.66
650.65	36711.30
650.80	36524.06
650.94	37172.39
651.09	36563.85
651.23	34569.71
651.38	33818.40
651.52	34330.98
651.67	36935.99
651.81	36811.95
651.96	36100.42
652.10	35889.77
652.25	36435.12
652.39	36584.91
652.54	37109.19
652.68	37038.98
652.83	36692.58
652.97	36811.95
653.12	34979.31
653.26	35250.81
653.41	35962.33
653.55	36046.59
653.70	36575.55
653.84	35730.62
653.99	36142.55
654.13	34913.77
654.27	33387.74
654.42	33888.62
654.56	32907.93
654.71	33240.29
654.85	33137.30
655.00	32872.82
655.14	32835.38
655.29	33076.45
655.43	32863.46
655.57	30789.75
655.72	28561.56
655.86	26043.14
656.01	25748.23
656.15	26120.38
656.30	27751.73
656.44	29673.31
656.58	32577.92
656.73	32016.19
656.87	33876.91
657.01	33560.94
657.16	35150.17
657.30	34396.51
657.45	33525.83
657.59	32774.52
657.73	34644.61
657.88	33937.77
658.02	33460.30
658.16	33001.55
658.31	33989.26
658.45	33354.97
658.60	32872.82
658.74	30256.11
658.88	31381.90
659.03	30773.36
659.17	31903.84
659.31	32580.26
659.46	33240.29
659.60	33991.60
659.74	32222.16
659.89	33483.70
660.03	33081.13
660.17	32666.86
660.32	32435.14
660.46	31988.10
660.60	32079.38
660.74	33722.44
660.89	32367.27
661.03	32397.70
661.17	32856.44
661.32	33043.68
661.46	32231.52
661.60	32292.37
661.74	32311.10
661.89	33109.22
662.03	32402.38
662.17	32680.90
662.31	32374.29
662.46	32954.74
662.60	31365.52
662.74	31681.49
662.88	31805.54
663.03	31290.62
663.17	31431.05
663.31	31826.60
663.45	31417.01
663.60	31037.84
663.74	31611.28
663.88	31096.36
664.02	30476.12
664.17	31777.45
664.31	31379.56
664.45	32833.04
664.59	31962.36
664.73	32872.82
664.88	32154.28
665.02	31805.54
665.16	31737.66
665.30	33476.68
665.44	32730.05
665.59	31878.10
665.73	31374.88
665.87	29823.11
666.01	30239.72
666.15	30471.43
666.29	30391.86
666.44	30192.91
666.58	29883.96
666.72	30331.00
666.86	29069.45
667.00	30611.87
667.14	31304.67
667.28	30976.99
667.43	30445.69
667.57	30897.41
667.71	31494.25
667.85	31419.35
667.99	30459.73
668.13	31625.32
668.27	31519.99
668.41	31440.42
668.56	30080.56
668.70	30110.99
668.84	31208.70
668.98	31276.58
669.12	31709.58
669.26	31807.88
669.40	30183.55
669.54	29177.12
669.68	27667.47
669.82	28205.80
669.96	28641.14
670.10	27665.13
670.25	27353.84
670.39	27971.74
670.53	26441.03
670.67	28182.39
670.81	28526.45
670.95	27653.43
671.09	27204.05
671.23	25930.80
671.37	26136.76
671.51	27929.61
671.65	27049.57
671.79	27936.63
671.93	26993.40
672.07	27913.23
672.21	27344.48
672.35	27042.55
672.49	26972.33
672.63	27644.07
672.77	27339.80
672.91	27058.93
673.05	26698.49
673.19	25944.84
673.33	26139.10
673.47	25963.56
673.61	25338.64
673.75	25373.75
673.89	24713.72
674.03	25556.31
674.17	25699.08
674.31	26452.73
674.45	25750.57
674.59	24638.82
674.73	25345.66
674.87	25869.94
675.01	26223.36
675.15	25296.51
675.29	24622.44
675.43	25495.46
675.56	25921.43
675.70	27630.02
675.84	27328.10
675.98	26270.17
676.12	25963.56
676.26	25596.10
676.40	25427.58
676.54	25797.38
676.68	25694.40
676.82	24741.80
676.96	25741.21
677.10	25149.06
677.23	25301.19
677.37	24201.14
677.51	23281.31
677.65	23337.48
677.79	23990.49
677.93	23936.66
678.07	23431.10
678.21	23707.29
678.34	23264.92
678.48	22766.39
678.62	22857.67
678.76	23194.71
678.90	23810.27
679.04	23510.68
679.18	24126.24
679.31	22506.59
679.45	22113.38
679.59	23295.35
679.73	23056.62
679.87	23576.22
680.00	23480.25
680.14	23164.28
680.28	23021.51
680.42	22464.46
680.56	22370.84
680.70	21884.01
680.83	21420.58
680.97	21715.49
681.11	22148.49
681.25	22312.33
681.39	22270.20
681.52	22431.69
681.66	21469.73
681.80	22843.63
681.94	22970.02
682.07	22295.94
682.21	22419.99
682.35	22436.38
682.49	21523.57
682.62	21673.36
682.76	20264.36
682.90	20669.27
683.04	20767.57
683.17	21170.15
683.31	20945.45
683.45	21764.64
683.59	21696.77
683.72	20166.06
683.86	20292.44
684.00	19826.68
684.13	20297.13
684.27	20229.25
684.41	20072.43
684.55	20311.17
684.68	19981.15
684.82	19124.52
684.96	18972.38
685.09	18162.56
685.23	19297.72
685.37	19323.46
685.50	19297.72
685.64	19042.60
685.78	19370.27
685.91	19520.07
686.05	20262.02
686.19	19681.56
686.32	17350.39
686.46	15653.50
686.60	14317.06
686.73	12961.89
686.87	11859.49
687.01	11854.81
687.14	12463.35
687.28	12463.35
687.42	13074.23
687.55	13774.05
687.69	14621.33
687.82	14902.19
687.96	15442.85
688.10	15534.14
688.23	14932.62
688.37	15119.86
688.50	13954.27
688.64	13820.86
688.78	13085.94
688.91	14565.15
689.05	14352.16
689.18	13727.24
689.32	13589.15
689.46	13338.71
689.59	13867.67
689.73	14157.90
689.86	14122.79
690.00	13647.66
690.13	14565.15
690.27	14375.57
690.41	14932.62
690.54	14892.83
690.68	14422.38
690.81	14171.94
690.95	15295.40
691.08	16547.59
691.22	15676.91
691.35	14867.08
691.49	14946.66
691.62	15590.31
691.76	15372.64
691.89	15417.11
692.03	15129.22
692.16	15176.03
692.30	14492.60
692.43	14080.66
692.57	13242.75
692.70	13781.07
692.84	13886.40
692.97	13479.15
693.11	13462.76
693.24	13680.43
693.38	13774.05
693.51	13891.08
693.65	13525.96
693.78	13151.47
693.92	12746.56
694.05	12290.15
694.19	12360.37
694.32	13252.11
694.45	14064.28
694.59	13380.84
694.72	13046.15
694.86	12957.21
694.99	13256.79
695.13	13467.44
695.26	13540.00
695.39	12989.97
695.53	13022.74
695.66	13081.25
695.80	13411.27
695.93	13305.95
696.07	13563.40
696.20	13284.88
696.33	13263.82
696.47	13142.11
696.60	13741.29
696.73	13907.46
696.87	12746.56
697.00	12580.38
697.14	12727.83
697.27	12690.38
697.40	12035.03
697.54	12343.99
697.67	12636.55
697.80	12786.35
697.94	11967.16
698.07	12116.95
698.21	12131.00
698.34	12145.04
698.47	11688.64
698.61	11824.39
698.74	11751.83
698.87	11283.72
699.01	11241.59
699.14	11929.71
699.27	11941.41
699.40	11676.93
699.54	11389.05
699.67	10951.37
699.80	10913.92
699.94	10501.98
700.07	10071.33
700.20	9928.55
700.34	9879.40
700.47	9781.10
700.60	9898.13
700.73	10047.92
700.87	9717.90
701.00	10176.65
701.13	10516.03
701.26	10207.08
701.40	9970.68
701.53	9933.23
701.66	10377.94
701.79	10686.89
701.93	10530.07
702.06	9839.61
702.19	10270.27
702.32	9832.59
702.46	9832.59
702.59	9998.77
702.72	10066.64
702.85	10377.94
702.99	10370.91
703.12	10019.83
703.25	10448.15
703.38	10162.61
703.51	9774.08
703.65	10036.22
703.78	10270.27
703.91	10464.54
704.04	10427.09
704.17	10045.58
704.31	9874.72
704.44	9568.11
704.57	9149.15
704.70	9060.21
704.83	8557.00
704.96	8540.61
705.10	8425.93
705.23	8870.63
>>>>>End Processed Spectral Data<<<<<
