SpectraSuite Data File
++++++++++++++++++++++++++++++++++++
Date: Mon Oct 07 14:52:58 GMT-05:00 2013
User: price-jones
Dark Spectrum Present: No
Reference Spectrum Present: No
Number of Sampled Component Spectra: 1
Spectrometers: USB2+H05261
Integration Time (usec): 100000 (USB2+H05261)
Spectra Averaged: 1 (USB2+H05261)
Boxcar Smoothing: 0 (USB2+H05261)
Correct for Electrical Dark: No (USB2+H05261)
Strobe/Lamp Enabled: No (USB2+H05261)
Correct for Detector Non-linearity: No (USB2+H05261)
Correct for Stray Light: No (USB2+H05261)
Number of Pixels in Processed Spectrum: 2048
>>>>>Begin Processed Spectral Data<<<<<
365.73	0.00
365.92	0.00
366.12	0.00
366.32	0.00
366.52	0.00
366.72	0.00
366.91	0.00
367.11	0.00
367.31	0.00
367.51	0.00
367.70	0.00
367.90	0.00
368.10	0.00
368.30	0.00
368.49	0.00
368.69	0.00
368.89	0.00
369.09	0.00
369.28	0.00
369.48	0.00
369.68	0.00
369.87	0.00
370.07	0.00
370.27	0.00
370.47	449.38
370.66	2789.92
370.86	3414.84
371.06	3440.59
371.25	3702.73
371.45	3227.60
371.65	2876.52
371.84	2813.32
372.04	2981.84
372.24	3253.34
372.44	3309.52
372.63	3370.37
372.83	3131.64
373.03	2764.17
373.22	2553.52
373.42	2567.57
373.62	3033.33
373.81	3410.16
374.01	3344.63
374.21	3026.31
374.40	2792.26
374.60	3033.33
374.79	3330.58
374.99	3674.64
375.19	4037.42
375.38	4014.02
375.58	3737.84
375.78	3913.38
375.97	3852.52
376.17	4086.58
376.37	3995.29
376.56	4021.04
376.76	4379.14
376.95	4634.26
377.15	4947.89
377.35	5114.07
377.54	5432.38
377.74	5465.15
377.93	5488.56
378.13	5238.12
378.33	5254.50
378.52	4547.66
378.72	4414.25
378.91	4463.40
379.11	4329.99
379.31	3997.64
379.50	4177.86
379.70	4418.93
379.89	4849.59
380.09	5331.74
380.28	5530.69
380.48	5488.56
380.68	5226.42
380.87	5001.72
381.07	4683.41
381.26	4224.67
381.46	4091.26
381.65	3976.57
381.85	4025.72
382.04	3705.07
382.24	3478.04
382.43	3246.32
382.63	3190.15
382.83	3246.32
383.02	3253.34
383.22	3314.20
383.41	3269.73
383.61	3543.57
383.80	3953.16
384.00	4601.49
384.19	5165.56
384.39	5376.21
384.58	5277.91
384.78	5242.80
384.97	5062.58
385.17	4774.69
385.36	4863.63
385.56	4575.75
385.75	4477.44
385.95	5039.17
386.14	5554.09
386.34	5320.04
386.53	5186.63
386.72	4980.66
386.92	5104.71
387.11	5362.17
387.31	5565.79
387.50	5561.11
387.70	5240.46
387.89	5165.56
388.09	5151.52
388.28	5221.74
388.48	5291.95
388.67	5832.62
388.86	6237.53
389.06	6782.87
389.25	7119.91
389.45	7194.81
389.64	7103.53
389.84	7047.35
390.03	6970.12
390.22	6759.47
390.42	7136.29
390.61	7719.09
390.81	8025.70
391.00	8383.80
391.19	8226.98
391.39	8002.29
391.58	7522.48
391.78	7173.74
391.97	6747.76
392.16	6307.74
392.36	5898.15
392.55	4730.22
392.75	3646.55
392.94	3005.25
393.13	3016.95
393.33	3702.73
393.52	4587.45
393.71	5612.60
393.91	6406.05
394.10	6836.70
394.29	7667.60
394.49	8051.44
394.68	8641.26
394.88	8659.98
395.07	9104.68
395.26	8858.93
395.46	8545.30
395.65	8208.26
395.84	7138.63
396.04	6113.48
396.23	4795.76
396.42	4109.98
396.62	4035.08
396.81	4830.87
397.00	6047.94
397.19	7363.33
397.39	8847.22
397.58	9973.02
397.77	10455.17
397.97	11000.52
398.16	11005.20
398.35	11290.74
398.55	11583.31
398.74	12131.00
398.93	12493.78
399.12	12212.92
399.32	11676.93
399.51	12231.64
399.70	12741.88
399.90	12636.55
400.09	12882.31
400.28	12730.17
400.47	12566.34
400.67	13013.38
400.86	13640.64
401.05	13469.78
401.24	13579.79
401.44	13841.93
401.63	14022.15
401.82	13935.55
402.01	14160.24
402.21	14094.71
402.40	14281.95
402.59	13745.97
402.78	13135.09
402.97	12966.57
403.17	13584.47
403.36	14122.79
403.55	14785.16
403.74	14998.15
403.93	14160.24
404.13	13345.73
404.32	12631.87
404.51	13680.43
404.70	14441.11
404.89	14565.15
405.09	14347.48
405.28	13855.97
405.47	13855.97
405.66	13710.86
405.85	13542.34
406.05	13359.78
406.24	13441.70
406.43	13975.34
406.62	14597.92
406.81	14494.94
407.00	13671.07
407.20	13837.25
407.39	13792.78
407.58	14361.53
407.77	15279.02
407.96	15515.41
408.15	15573.92
408.34	15768.19
408.54	16470.35
408.73	16608.44
408.92	16163.74
409.11	15770.53
409.30	14993.47
409.49	14045.55
409.68	13174.88
409.87	12978.27
410.07	13689.79
410.26	14679.84
410.45	15447.54
410.64	16053.73
410.83	16563.97
411.02	16915.05
411.21	17626.57
411.40	17392.52
411.59	17624.23
411.78	17439.33
411.98	16851.86
412.17	17572.74
412.36	17020.38
412.55	17415.93
412.74	16849.52
412.93	16379.07
413.12	16594.40
413.31	18295.97
413.50	18731.31
413.69	18548.75
413.88	17851.27
414.07	17287.20
414.26	17806.80
414.45	18508.96
414.64	18202.35
414.83	18576.83
415.02	18239.79
415.22	18090.00
415.41	18462.15
415.60	19040.26
415.79	19714.33
415.98	20299.47
416.17	20388.41
416.36	19667.52
416.55	19452.19
416.74	18675.13
416.93	18211.71
417.12	18429.38
417.31	18317.03
417.50	18689.18
417.69	19515.39
417.88	19389.00
418.07	19058.98
418.26	18909.19
418.45	19225.16
418.64	19784.55
418.83	20283.08
419.02	20280.74
419.21	19922.64
419.39	18754.71
419.58	18221.07
419.77	18352.14
419.96	19248.57
420.15	19967.11
420.34	21074.18
420.53	21333.98
420.72	22043.17
420.91	21537.61
421.10	21214.62
421.29	21123.33
421.48	20369.68
421.67	21357.39
421.86	20671.61
422.05	19297.72
422.24	17317.62
422.43	17577.42
422.61	19030.90
422.80	20489.05
422.99	20531.18
423.18	19892.21
423.37	19344.53
423.56	19740.08
423.75	19971.79
423.94	20425.86
424.13	19241.54
424.32	19349.21
424.50	19513.05
424.69	19452.19
424.88	19377.30
425.07	19353.89
425.26	19318.78
425.45	19007.49
425.64	18897.49
425.83	18789.82
426.01	19777.53
426.20	20182.44
426.39	20252.66
426.58	18698.54
426.77	17366.78
426.96	16854.20
427.15	17326.99
427.33	18885.78
427.52	19793.91
427.71	19508.37
427.90	19421.77
428.09	19206.44
428.28	18740.67
428.46	18113.41
428.65	17762.33
428.84	18401.29
429.03	18567.47
429.22	17345.71
429.40	16491.41
429.59	15028.58
429.78	13275.52
429.97	13364.46
430.16	13600.85
430.34	13493.19
430.53	13839.59
430.72	14204.71
430.91	15288.38
431.10	18244.48
431.28	21425.26
431.47	23690.90
431.66	23398.34
431.85	21394.84
432.03	19775.19
432.22	18918.55
432.41	19531.77
432.60	21532.93
432.79	22703.20
432.97	23248.54
433.16	22525.32
433.35	20531.18
433.54	18239.79
433.72	17493.16
433.91	17853.61
434.10	19974.13
434.28	21802.09
434.47	22754.69
434.66	22249.13
434.85	21799.75
435.03	21668.68
435.22	22199.98
435.41	23557.49
435.59	23550.47
435.78	23896.87
435.97	24418.81
436.16	24411.79
436.34	24044.32
436.53	23412.38
436.72	23948.36
436.90	22527.66
437.09	22628.30
437.28	21947.20
437.46	22724.26
437.65	22735.96
437.84	21198.23
438.02	19379.64
438.21	19477.94
438.40	20561.61
438.58	22324.03
438.77	22773.41
438.96	22806.18
439.14	24105.18
439.33	24496.05
439.52	25022.67
439.70	24397.74
439.89	23814.95
440.08	23468.55
440.26	23501.32
440.45	24063.05
440.63	25596.10
440.82	26618.91
441.01	26199.96
441.19	26457.42
441.38	26899.78
441.57	27651.09
441.75	27875.78
441.94	27718.96
442.12	27550.45
442.31	28313.46
442.50	28641.14
442.68	28056.00
442.87	27754.07
443.05	27435.76
443.24	27828.97
443.43	28217.50
443.61	28444.53
443.80	29432.24
443.98	27662.79
444.17	27812.59
444.35	28929.02
444.54	30101.63
444.73	29287.12
444.91	28252.61
445.10	27110.43
445.28	26218.68
445.47	25642.91
445.65	25748.23
445.84	26579.12
446.02	27070.64
446.21	27655.77
446.39	27573.85
446.58	28404.74
446.77	28936.04
446.95	28989.88
447.14	29841.83
447.32	30249.08
447.51	29057.75
447.69	28496.02
447.88	28041.96
448.06	28685.61
448.25	29060.09
448.43	29427.56
448.62	28830.72
448.80	28442.19
448.99	28545.17
449.17	29200.52
449.36	29069.45
449.54	30368.45
449.73	30965.29
449.91	30801.45
450.10	32011.51
450.28	31978.74
450.46	32243.22
450.65	32002.14
450.83	31821.92
451.02	30967.63
451.20	31246.15
451.39	31180.62
451.57	30866.98
451.76	30948.90
451.94	30855.28
452.13	29984.60
452.31	28753.48
452.49	27234.47
452.68	27623.00
452.86	27983.44
453.05	28276.01
453.23	29053.07
453.42	29937.79
453.60	30441.01
453.78	30609.53
453.97	30213.98
454.15	30223.34
454.34	29584.37
454.52	30260.79
454.70	29329.25
454.89	29603.10
455.07	29539.90
455.26	30047.80
455.44	31407.65
455.62	31922.57
455.81	31709.58
455.99	31365.52
456.17	31613.62
456.36	31590.21
456.54	32678.56
456.73	32236.20
456.91	32872.82
457.09	33069.43
457.28	33350.29
457.46	32226.84
457.64	32353.23
457.83	31435.74
458.01	30536.97
458.19	31442.76
458.38	31494.25
458.56	32505.36
458.74	32292.37
458.93	31974.06
459.11	31665.11
459.29	31615.96
459.48	31791.50
459.66	31627.66
459.84	31913.20
460.03	32217.47
460.21	32505.36
460.39	32964.10
460.57	33153.69
460.76	33706.05
460.94	33525.83
461.12	33528.17
461.31	33235.61
461.49	33326.89
461.67	33277.74
461.85	34328.64
462.04	34160.12
462.22	34871.64
462.40	33940.11
462.59	33787.97
462.77	34015.01
462.95	33806.70
463.13	33563.28
463.32	33270.72
463.50	33024.96
463.68	33362.00
463.86	33069.43
464.05	32804.95
464.23	32236.20
464.41	32098.11
464.59	31737.66
464.78	33633.50
464.96	32751.12
465.14	32409.40
465.32	33584.35
465.50	33869.89
465.69	34448.00
465.87	33853.51
466.05	32641.11
466.23	31388.92
466.41	31316.37
466.60	32027.89
466.78	31835.97
466.96	32470.25
467.14	32589.62
467.32	33310.50
467.51	32989.85
467.69	32093.43
467.87	32388.33
468.05	33146.67
468.23	33076.45
468.41	33001.55
468.60	32486.64
468.78	33776.27
468.96	33422.85
469.14	33560.94
469.32	33652.22
469.50	32301.73
469.69	32060.66
469.87	32273.65
470.05	32217.47
470.23	31990.44
470.41	32041.93
470.59	32921.98
470.77	32802.61
470.95	33591.37
471.14	33832.44
471.32	34066.50
471.50	35117.40
471.68	35601.89
471.86	36037.23
472.04	36231.49
472.22	35969.35
472.40	34522.90
472.58	34113.31
472.77	33921.38
472.95	34476.09
473.13	35798.49
473.31	34981.65
473.49	34848.24
473.67	35817.22
473.85	35988.08
474.03	36753.43
474.21	36568.53
474.39	37099.83
474.57	37193.45
474.75	37469.64
474.93	37144.30
475.12	36282.98
475.30	36046.59
475.48	36285.33
475.66	36844.71
475.84	36360.22
476.02	36472.57
476.20	35445.07
476.38	36605.98
476.56	37497.72
476.74	37916.68
476.92	37762.20
477.10	39388.88
477.28	39519.95
477.46	39943.58
477.64	40208.06
477.82	40072.31
478.00	40414.03
478.18	39889.75
478.36	39878.05
478.54	39782.09
478.72	39772.72
478.90	41184.07
479.08	42108.58
479.26	42703.07
479.44	42344.97
479.62	41811.33
479.80	42043.04
479.98	42169.43
480.16	42670.31
480.34	42344.97
480.52	42511.15
480.70	43255.44
480.88	43014.37
481.06	43950.58
481.24	43894.41
481.41	45001.48
481.59	44807.22
481.77	45050.63
481.95	44409.32
482.13	44430.39
482.31	44168.25
482.49	45296.39
482.67	45141.91
482.85	45390.01
483.03	46167.07
483.21	45825.35
483.39	46153.02
483.57	45366.60
483.74	45432.14
483.92	45331.50
484.10	45689.60
484.28	46536.87
484.46	47016.68
484.64	47672.03
484.82	46600.07
485.00	45823.01
485.18	44992.12
485.35	43353.74
485.53	40556.80
485.71	36971.10
485.89	37448.57
486.07	38990.98
486.25	42246.67
486.43	44474.86
486.61	45043.61
486.78	45074.04
486.96	45022.54
487.14	46927.74
487.32	47824.17
487.50	49261.26
487.68	49624.04
487.85	50033.63
488.03	49979.80
488.21	49734.04
488.39	48816.55
488.57	48374.19
488.75	47859.27
488.92	49291.68
489.10	51253.05
489.28	52563.75
489.46	53502.31
489.64	52975.69
489.81	53249.53
489.99	52685.46
490.17	53347.83
490.35	53286.98
490.53	52802.49
490.70	52456.09
490.88	52722.91
491.06	53581.88
491.24	53279.96
491.41	52315.65
491.59	50408.12
491.77	50237.26
491.95	51026.02
492.13	52533.32
492.30	53645.08
492.48	54623.42
492.66	55100.89
492.84	54869.18
493.01	54953.44
493.19	53858.07
493.37	53605.29
493.54	53375.92
493.72	54255.96
493.90	55196.85
494.08	55821.78
494.25	56093.28
494.43	56306.27
494.61	56676.07
494.79	56774.37
494.96	56463.08
495.14	55842.84
495.32	55117.28
495.49	54497.03
495.67	55618.15
495.85	56701.82
496.02	57179.29
496.20	56889.06
496.38	56589.47
496.55	56617.56
496.73	57003.75
496.91	57071.62
497.09	57488.24
497.26	57757.40
497.44	57418.02
497.62	56528.62
497.79	55985.61
497.97	54567.25
498.14	54927.69
498.32	56257.12
498.50	57027.15
498.67	57584.20
498.85	57448.45
499.03	57607.61
499.20	57827.62
499.38	57759.74
499.56	57607.61
499.73	57265.89
499.91	56727.56
500.08	56280.52
500.26	55636.87
500.44	56170.52
500.61	56835.23
500.79	56556.70
500.97	56301.59
501.14	56306.27
501.32	56009.02
501.49	56037.11
501.67	56207.97
501.84	56870.34
502.02	57027.15
502.20	57340.78
502.37	57605.26
502.55	57443.77
502.72	57961.03
502.90	58473.60
503.07	57970.39
503.25	57743.36
503.43	56875.02
503.60	56456.06
503.78	55676.66
503.95	56121.37
504.13	57528.03
504.30	58241.89
504.48	58181.04
504.65	57820.59
504.83	57970.39
505.01	58319.13
505.18	58686.59
505.36	59173.42
505.53	59220.23
505.71	59517.48
505.88	59512.80
506.06	59089.16
506.23	58667.87
506.41	58398.71
506.58	58632.76
506.76	58583.61
506.93	58415.09
507.11	58199.76
507.28	58639.78
507.46	58120.18
507.63	57457.81
507.81	57296.31
507.98	57661.44
508.16	58258.27
508.33	58705.32
508.50	58981.50
508.68	59302.15
508.85	59756.22
509.03	59781.96
509.20	59585.36
509.38	58880.86
509.55	58073.37
509.73	58298.06
509.90	58862.13
510.08	58941.71
510.25	58820.00
510.42	58658.51
510.60	58756.81
510.77	58993.20
510.95	59351.30
511.12	59646.21
511.30	59973.89
511.47	60236.03
511.64	60076.87
511.82	59718.77
511.99	58922.99
512.17	58602.33
512.34	58199.76
512.51	58672.55
512.69	58714.68
512.86	58578.93
513.04	59110.23
513.21	59016.61
513.38	58782.55
513.56	58190.40
513.73	57673.14
513.90	57799.53
514.08	58089.76
514.25	58220.83
514.43	58525.10
514.60	58738.08
514.77	58796.60
514.95	58780.21
515.12	58922.99
515.29	59023.63
515.47	59550.25
515.64	59618.13
515.81	59325.56
515.99	58410.41
516.16	57247.16
516.33	54934.71
516.51	53762.11
516.68	52971.00
516.85	52458.43
517.03	53216.76
517.20	55599.43
517.37	57909.53
517.54	58894.90
517.72	58211.46
517.89	55711.77
518.06	53867.43
518.24	54279.36
518.41	56287.54
518.58	57722.29
518.75	57668.46
518.93	58141.25
519.10	57631.01
519.27	58277.00
519.45	58560.20
519.62	59077.46
519.79	59421.52
519.96	59330.24
520.14	58728.72
520.31	58000.82
520.48	58094.44
520.65	58316.79
520.83	59395.77
521.00	59597.06
521.17	59128.95
521.34	58913.62
521.52	59260.02
521.69	59831.11
521.86	60025.38
522.03	59686.00
522.20	58375.30
522.38	57659.10
522.55	57951.66
522.72	58260.62
522.89	58206.78
523.07	58508.71
523.24	58855.11
523.41	59812.39
523.58	59983.25
523.75	60399.86
523.92	60221.98
524.10	60444.33
524.27	60104.96
524.44	59992.61
524.61	59856.86
524.78	59536.21
524.96	59826.43
525.13	59723.45
525.30	59831.11
525.47	60348.37
525.64	60196.24
525.81	59456.63
525.98	57982.09
526.16	56868.00
526.33	56259.46
526.50	55873.27
526.67	55746.88
526.84	56413.93
527.01	57228.44
527.18	58071.03
527.36	58876.18
527.53	59662.60
527.70	59924.74
527.87	59227.26
528.04	58958.09
528.21	59426.20
528.38	59723.45
528.55	60430.29
528.72	61008.40
528.89	60872.65
529.07	60678.39
529.24	60030.06
529.41	59437.90
529.58	58958.09
529.75	59021.29
529.92	59330.24
530.09	59725.79
530.26	60257.09
530.43	60570.72
530.60	60423.27
530.77	60652.64
530.94	60975.64
531.11	60324.97
531.28	60095.60
531.46	60069.85
531.63	60177.51
531.80	59833.46
531.97	59709.41
532.14	58794.26
532.31	57595.90
532.48	57176.95
532.65	57268.23
532.82	58049.97
532.99	59302.15
533.16	59412.16
533.33	59969.21
533.50	59765.58
533.67	59281.09
533.84	58899.58
534.01	59025.97
534.18	59114.91
534.35	59341.94
534.52	58979.16
534.69	59543.23
534.86	59547.91
535.03	59896.65
535.20	60603.49
535.37	60741.58
535.54	60797.76
535.71	60439.65
535.88	60191.56
536.05	59636.85
536.22	58993.20
536.38	59037.67
536.55	58497.01
536.72	57785.49
536.89	57942.30
537.06	58897.24
537.23	59583.02
537.40	59910.69
537.57	59753.88
537.74	59543.23
537.91	59615.79
538.08	59449.61
538.25	59583.02
538.42	59819.41
538.59	59400.46
538.75	58841.07
538.92	58960.44
539.09	58550.84
539.26	58330.83
539.43	58358.92
539.60	58482.97
539.77	58754.47
539.94	58330.83
540.11	57420.36
540.28	57301.00
540.44	57336.10
540.61	57799.53
540.78	57495.26
540.95	58129.54
541.12	58578.93
541.29	58841.07
541.46	59138.32
541.62	58960.44
541.79	58878.52
541.96	58457.22
542.13	58394.03
542.30	58628.08
542.47	58693.61
542.63	58487.65
542.80	58384.66
542.97	58410.41
543.14	58361.26
543.31	58560.20
543.48	58672.55
543.64	59786.64
543.81	59817.07
543.98	59664.94
544.15	59000.22
544.32	58618.72
544.48	58866.81
544.65	59105.55
544.82	59437.90
544.99	59126.61
545.16	58656.17
545.32	58555.52
545.49	59353.65
545.66	59585.36
545.83	58990.86
546.00	58766.17
546.16	58639.78
546.33	58592.97
546.50	58672.55
546.67	59032.99
546.83	58782.55
547.00	58724.04
547.17	57965.71
547.34	57488.24
547.50	57488.24
547.67	57881.45
547.84	58141.25
548.00	58436.16
548.17	59009.59
548.34	58595.31
548.51	58592.97
548.67	58995.54
548.84	58915.96
549.01	58642.12
549.18	58635.10
549.34	58473.60
549.51	58714.68
549.68	58574.25
549.84	58293.38
550.01	58237.21
550.18	58202.10
550.34	58188.06
550.51	58241.89
550.68	58571.91
550.84	57738.68
551.01	58312.11
551.18	58049.97
551.34	58316.79
551.51	58239.55
551.68	58922.99
551.84	58726.38
552.01	58457.22
552.18	58295.72
552.34	57539.73
552.51	57359.51
552.68	57289.29
552.84	57916.56
553.01	57916.56
553.18	57726.97
553.34	57897.83
553.51	58040.60
553.67	58260.62
553.84	58557.86
554.01	58403.39
554.17	58305.09
554.34	58199.76
554.51	58501.69
554.67	58899.58
554.84	58576.59
555.00	57979.75
555.17	58028.90
555.33	58181.04
555.50	57872.09
555.67	58124.86
555.83	57757.40
556.00	57322.06
556.16	57411.00
556.33	56896.08
556.50	57118.43
556.66	57148.86
556.83	56697.14
556.99	56992.04
557.16	57104.39
557.32	57301.00
557.49	57757.40
557.65	57380.57
557.82	57469.51
557.98	57209.71
558.15	57078.64
558.32	56219.67
558.48	55292.82
558.65	55835.82
558.81	55833.48
558.98	56144.77
559.14	56383.51
559.31	56346.06
559.47	56603.52
559.64	56172.86
559.80	55519.85
559.97	55901.36
560.13	56294.56
560.30	57207.37
560.46	57623.99
560.63	58211.46
560.79	57841.66
560.96	57621.65
561.12	56353.08
561.29	55437.93
561.45	55667.30
561.61	56334.35
561.78	56790.76
561.94	56474.79
562.11	56224.35
562.27	56348.40
562.44	56509.89
562.60	56779.06
562.77	57127.80
562.93	56942.89
563.10	56853.95
563.26	56170.52
563.42	56500.53
563.59	56121.37
563.75	56116.68
563.92	56186.90
564.08	56154.13
564.24	56699.48
564.41	56495.85
564.57	56348.40
564.74	56357.76
564.90	56243.07
565.07	56107.32
565.23	55512.83
565.39	54913.65
565.56	55056.42
565.72	54703.00
565.88	55047.06
566.05	55049.40
566.21	55330.26
566.38	55702.41
566.54	55552.62
566.70	55915.40
566.87	56250.09
567.03	56175.20
567.19	56542.66
567.36	56095.62
567.52	56018.38
567.68	55559.64
567.85	55203.88
568.01	54918.33
568.17	54164.68
568.34	54424.48
568.50	54429.16
568.66	54651.51
568.83	54911.31
568.99	54887.90
569.15	55267.07
569.32	55128.98
569.48	54813.01
569.64	54805.98
569.81	54344.90
569.97	54284.04
570.13	54197.44
570.30	53495.28
570.46	53446.13
570.62	52844.62
570.78	52753.33
570.95	53071.65
571.11	53701.25
571.27	53965.73
571.43	54265.32
571.60	54770.88
571.76	54944.08
571.92	55161.75
572.09	55112.59
572.25	55042.38
572.41	55196.85
572.57	55025.99
572.74	55121.96
572.90	54422.14
573.06	54494.69
573.22	54695.98
573.38	54459.58
573.55	54447.88
573.71	54717.04
573.87	54600.02
574.03	54447.88
574.20	54349.58
574.36	54061.69
574.52	53928.28
574.68	53450.81
574.84	53396.98
575.01	52893.77
575.17	52947.60
575.33	53352.51
575.49	53595.93
575.65	53518.69
575.82	53464.86
575.98	53120.80
576.14	53425.07
576.30	53499.97
576.46	53748.06
576.62	53691.89
576.79	53663.80
576.95	53469.54
577.11	53120.80
577.27	53338.47
577.43	53427.41
577.59	52886.74
577.75	52465.45
577.92	51669.67
578.08	51885.00
578.24	51742.22
578.40	52126.07
578.56	52381.19
578.72	52353.10
578.88	53064.63
579.04	52971.00
579.21	52858.66
579.37	52781.42
579.53	52973.34
579.69	53102.07
579.85	53076.33
580.01	52769.72
580.17	52608.22
580.33	52257.14
580.49	52619.92
580.65	53031.86
580.82	53085.69
580.98	52795.46
581.14	52994.41
581.30	53191.01
581.46	53006.11
581.62	53125.48
581.78	53083.35
581.94	53392.30
582.10	53057.60
582.26	53457.84
582.42	53195.70
582.58	53015.47
582.74	53329.11
582.90	53137.18
583.06	53006.11
583.22	52891.43
583.38	52868.02
583.54	52727.59
583.70	52552.05
583.86	52851.64
584.02	52718.23
584.18	52556.73
584.34	52746.31
584.50	52596.52
584.66	52336.72
584.82	52163.52
584.98	51997.34
585.14	51796.06
585.30	50827.07
585.46	50700.68
585.62	50497.06
585.78	51129.00
585.94	51185.18
586.10	51271.78
586.26	51168.79
586.42	51681.37
586.58	51885.00
586.74	52233.74
586.90	51803.08
587.06	51503.49
587.22	51646.26
587.38	51215.60
587.54	51189.86
587.70	50843.46
587.86	50635.15
588.02	50475.99
588.18	50255.98
588.34	49038.90
588.49	46855.18
588.65	44811.90
588.81	44914.88
588.97	45130.21
589.13	45123.19
589.29	44622.31
589.45	45280.00
589.61	46763.90
589.77	48205.67
589.93	49181.68
590.08	49734.04
590.24	49897.88
590.40	49993.84
590.56	50321.52
590.72	49825.32
590.88	49310.41
591.04	49038.90
591.20	49167.63
591.35	48952.30
591.51	49305.73
591.67	49132.53
591.83	49097.42
591.99	48921.88
592.15	49481.27
592.31	49647.44
592.46	49404.03
592.62	48975.71
592.78	49062.31
592.94	48669.10
593.10	49066.99
593.26	49422.75
593.41	49799.58
593.57	49436.80
593.73	49104.44
593.89	48786.13
594.05	48435.05
594.20	48044.18
594.36	47749.27
594.52	47208.61
594.68	47576.07
594.84	47702.46
594.99	48594.20
595.15	48034.81
595.31	49137.21
595.47	48353.13
595.62	48643.35
595.78	49027.20
595.94	48807.19
596.10	48488.88
596.25	48531.01
596.41	48217.38
596.57	47707.14
596.73	48610.59
596.88	48680.80
597.04	48587.18
597.20	48236.10
597.36	47810.12
597.51	48435.05
597.67	47927.15
597.83	47611.18
597.99	47798.42
598.14	46735.82
598.30	47283.50
598.46	47262.44
598.61	47533.94
598.77	47072.85
598.93	47779.70
599.09	47997.37
599.24	47721.18
599.40	47756.29
599.56	48004.39
599.71	47763.31
599.87	47559.69
600.03	47641.60
600.18	47110.30
600.34	46241.96
600.50	46813.05
600.65	47021.36
600.81	46997.96
600.97	47114.98
601.12	47049.45
601.28	46557.94
601.44	46384.74
601.59	46401.12
601.75	45773.86
601.91	46047.70
602.06	45766.84
602.22	46234.94
602.37	46225.58
602.53	46457.29
602.69	47325.63
602.84	47180.52
603.00	47213.29
603.16	47634.58
603.31	47559.69
603.47	47573.73
603.62	46841.14
603.78	47107.96
603.94	46686.67
604.09	46777.95
604.25	46689.01
604.40	46906.68
604.56	46536.87
604.71	47192.22
604.87	46426.87
605.03	46230.26
605.18	46300.48
605.34	46305.16
605.49	46656.24
605.65	46712.41
605.80	46340.27
605.96	46066.42
606.12	45537.46
606.27	45539.80
606.43	45897.91
606.58	45982.16
606.74	45837.05
606.89	45715.34
607.05	46230.26
607.20	46099.19
607.36	45268.30
607.51	45497.67
607.67	45155.96
607.82	45052.97
607.98	44807.22
608.13	44903.18
608.29	44446.77
608.44	44392.94
608.60	44308.68
608.75	44376.56
608.91	44240.81
609.06	44570.82
609.22	44678.49
609.37	44334.43
609.53	44004.41
609.68	43704.82
609.84	43438.00
609.99	43079.90
610.15	43412.26
610.30	43241.40
610.46	43508.22
610.61	44069.95
610.76	43931.86
610.92	44594.23
611.07	44669.12
611.23	44671.46
611.38	44741.68
611.54	44215.06
611.69	43236.72
611.84	42724.14
612.00	43000.32
612.15	42724.14
612.31	42618.81
612.46	42836.48
612.62	42864.57
612.77	43171.18
612.92	43763.34
613.08	42927.77
613.23	41574.94
613.39	41390.03
613.54	40884.48
613.69	40875.12
613.85	41305.77
614.00	41301.09
614.15	42206.88
614.31	42384.76
614.46	42057.09
614.62	42136.66
614.77	42227.95
614.92	42141.35
615.08	41961.12
615.23	42036.02
615.38	41893.25
615.54	41291.73
615.69	40084.01
615.84	39220.36
616.00	39243.76
616.15	39538.67
616.30	39679.10
616.46	39543.35
616.61	39592.50
616.76	39746.98
616.92	40079.33
617.07	40683.19
617.22	40198.70
617.37	40662.13
617.53	41003.85
617.68	41359.61
617.83	40931.29
617.99	41237.90
618.14	41317.48
618.29	41120.87
618.45	40767.45
618.60	39978.69
618.75	40004.44
618.90	39927.20
619.06	40657.45
619.21	41053.00
619.36	40662.13
619.51	40502.97
619.67	40343.81
619.82	40205.72
619.97	40446.80
620.12	40320.41
620.28	40371.90
620.43	40411.69
620.58	40397.65
620.73	40395.31
620.89	40100.40
621.04	39990.39
621.19	39065.88
621.34	39484.84
621.49	39086.95
621.65	38998.01
621.80	39267.17
621.95	39133.76
622.10	38906.73
622.25	39093.97
622.41	39005.03
622.56	38438.62
622.71	37968.17
622.86	37787.95
623.01	38139.03
623.16	38429.26
623.32	38164.78
623.47	38284.14
623.62	37940.08
623.77	37921.36
623.92	38014.98
624.07	37057.70
624.23	36975.78
624.38	37177.07
624.53	37483.68
624.68	37053.02
624.83	36943.02
624.98	36900.89
625.13	36020.84
625.29	36575.55
625.44	36643.43
625.59	36222.13
625.74	37106.85
625.89	36910.25
626.04	36392.99
626.19	37001.53
626.34	37097.49
626.49	37001.53
626.65	36797.90
626.80	36968.76
626.95	36844.71
627.10	36397.67
627.25	35391.24
627.40	34892.71
627.55	33429.87
627.70	33897.98
627.85	33998.62
628.00	34443.32
628.15	35381.88
628.30	34960.58
628.45	35185.27
628.60	34988.67
628.76	35192.30
628.91	35290.60
629.06	35000.37
629.21	34609.50
629.36	34455.03
629.51	33958.83
629.66	34195.23
629.81	34029.05
629.96	33844.15
630.11	34270.12
630.26	34555.67
630.41	34546.31
630.56	34677.38
630.71	34572.05
630.86	34911.43
631.01	34501.84
631.16	33586.69
631.31	33223.90
631.46	32453.87
631.61	33553.92
631.76	33895.64
631.91	33757.55
632.06	34298.21
632.21	34389.49
632.36	34300.55
632.51	34129.69
632.66	34534.60
632.81	33919.04
632.96	34469.07
633.10	33944.79
633.25	33598.39
633.40	33460.30
633.55	33977.56
633.70	33598.39
633.85	33186.46
634.00	33474.34
634.15	33291.78
634.30	33301.14
634.45	33619.46
634.60	33376.04
634.75	33558.60
634.90	33493.07
635.05	33787.97
635.19	33280.08
635.34	33787.97
635.49	33188.80
635.64	32910.27
635.79	32549.83
635.94	32570.90
636.09	32613.02
636.24	32641.11
636.39	33039.00
636.53	33069.43
636.68	32713.67
636.83	33113.90
636.98	33350.29
637.13	33259.01
637.28	33399.44
637.43	33495.41
637.57	33486.04
637.72	33125.60
637.87	32999.21
638.02	33193.48
638.17	32868.14
638.32	32666.86
638.46	32957.08
638.61	32919.63
638.76	32467.91
638.91	31857.03
639.06	32006.83
639.20	31934.27
639.35	32058.32
639.50	31597.23
639.65	31634.68
639.80	31793.84
639.94	31541.06
640.09	32077.04
640.24	31817.24
640.39	31637.02
640.54	31267.22
640.68	31498.93
640.83	31002.74
640.98	30506.54
641.13	30373.13
641.27	31058.91
641.42	30792.09
641.57	30958.27
641.72	31068.27
641.86	30749.96
642.01	30979.33
642.16	31124.44
642.31	30967.63
642.45	31426.37
642.60	31108.06
642.75	30799.11
642.90	30778.04
643.04	30696.13
643.19	30611.87
643.34	30794.43
643.48	30426.96
643.63	30506.54
643.78	30525.27
643.93	30827.20
644.07	31143.17
644.22	30897.41
644.37	30569.74
644.51	30349.73
644.66	29944.81
644.81	30110.99
644.95	30316.96
645.10	30003.33
645.25	29450.96
645.39	29685.01
645.54	29455.64
645.69	29010.94
645.83	28929.02
645.98	28664.54
646.13	28898.59
646.27	29235.63
646.42	28594.32
646.57	28669.22
646.71	28802.63
646.86	28898.59
647.00	28397.72
647.15	28533.47
647.30	27976.42
647.44	27953.02
647.59	28187.07
647.74	28290.06
647.88	28041.96
648.03	28133.24
648.17	27910.89
648.32	28208.14
648.47	28353.25
648.61	28215.16
648.76	28011.53
648.90	27229.79
649.05	26714.87
649.20	26015.05
649.34	26101.65
649.49	26253.79
649.63	26679.77
649.78	27091.70
649.92	27433.42
650.07	28142.60
650.21	28051.32
650.36	28098.13
650.51	28182.39
650.65	28273.67
650.80	28142.60
650.94	27915.57
651.09	27707.26
651.23	27178.30
651.38	26359.11
651.52	26319.32
651.67	26829.56
651.81	27147.87
651.96	27517.68
652.10	27257.88
652.25	27215.75
652.39	27393.63
652.54	27634.71
652.68	27346.82
652.83	26993.40
652.97	27037.87
653.12	27035.53
653.26	27459.16
653.41	27405.33
653.55	27424.06
653.70	27503.64
653.84	27117.45
653.99	26663.38
654.13	26710.19
654.27	26251.45
654.42	26136.76
654.56	26064.21
654.71	26089.95
654.85	26328.69
655.00	25495.46
655.14	25406.52
655.29	24905.64
655.43	24390.72
655.57	23014.49
655.72	21584.42
655.86	20187.12
656.01	19267.29
656.15	19501.34
656.30	20795.66
656.44	21996.35
656.58	22934.91
656.73	23758.78
656.87	23873.46
657.01	24339.23
657.16	24706.70
657.30	25135.01
657.45	25647.59
657.59	25710.78
657.73	25443.96
657.88	25626.53
658.02	25406.52
658.16	25362.04
658.31	25113.95
658.45	25310.55
658.60	25020.33
658.74	24790.95
658.88	24833.08
659.03	24582.65
659.17	24219.86
659.31	24709.04
659.46	24868.19
659.60	25088.20
659.74	25319.92
659.89	25200.55
660.03	25626.53
660.17	25376.09
660.32	25165.44
660.46	25109.27
660.60	25076.50
660.74	24507.75
660.89	24769.89
661.03	24510.09
661.17	24692.65
661.32	24809.68
661.46	25013.31
661.60	24781.59
661.74	24809.68
661.89	25195.87
662.03	24795.64
662.17	24687.97
662.31	24425.83
662.46	24357.96
662.60	24414.13
662.74	24360.30
662.88	24116.88
663.03	23810.27
663.17	23517.70
663.31	23824.31
663.45	24093.47
663.60	24114.54
663.74	23667.50
663.88	23882.83
664.02	23585.58
664.17	23613.66
664.31	23786.86
664.45	23711.97
664.59	23653.45
664.73	23529.41
664.88	23854.74
665.02	23616.01
665.16	23655.79
665.30	23435.78
665.44	23154.92
665.59	23234.50
665.73	23192.37
665.87	22988.74
666.01	22579.15
666.15	22754.69
666.29	22427.01
666.44	22642.34
666.58	22813.20
666.72	22431.69
666.86	22686.81
667.00	22464.46
667.14	22913.84
667.28	22342.75
667.43	22317.01
667.57	22305.31
667.71	22401.27
667.85	22167.21
667.99	22527.66
668.13	22658.73
668.27	22384.88
668.41	22176.58
668.56	21909.75
668.70	22043.17
668.84	22017.42
668.98	22143.81
669.12	22104.02
669.26	21680.38
669.40	21886.35
669.54	21425.26
669.68	21624.21
669.82	21783.37
669.96	21500.16
670.10	21401.86
670.25	21774.00
670.39	21123.33
670.53	21064.82
670.67	21111.63
670.81	20814.38
670.95	20966.52
671.09	20929.07
671.23	20900.98
671.37	20755.87
671.51	20819.07
671.65	20603.74
671.79	20650.55
671.93	20587.35
672.07	20891.62
672.21	20599.05
672.35	20332.23
672.49	20231.59
672.63	20343.94
672.77	20568.63
672.91	20414.15
673.05	20088.82
673.19	20439.90
673.33	20180.10
673.47	19983.49
673.61	20163.72
673.75	20177.76
673.89	20044.35
674.03	20058.39
674.17	19861.79
674.31	19798.59
674.45	19585.60
674.59	19337.51
674.73	19484.96
674.87	19363.25
675.01	19290.70
675.15	19389.00
675.29	19442.83
675.43	19171.33
675.56	19374.95
675.70	19414.74
675.84	19091.75
675.98	18471.51
676.12	18918.55
676.26	19077.71
676.40	18698.54
676.54	18817.91
676.68	18757.05
676.82	18492.57
676.96	18754.71
677.10	18625.98
677.23	18703.22
677.37	18459.81
677.51	18462.15
677.65	18780.46
677.79	18349.80
677.93	18078.30
678.07	18178.94
678.21	17881.69
678.34	17884.03
678.48	17874.67
678.62	17568.06
678.76	17783.39
678.90	17561.04
679.04	17373.80
679.18	17755.30
679.31	17331.67
679.45	17507.21
679.59	17359.75
679.73	17371.46
679.87	16992.29
680.00	17266.13
680.14	17099.95
680.28	16791.00
680.42	16449.28
680.56	16788.66
680.70	16561.63
680.83	16540.57
680.97	16489.07
681.11	16503.12
681.25	16432.90
681.39	16341.62
681.52	16552.27
681.66	16299.49
681.80	16123.95
681.94	16313.53
682.07	16512.48
682.21	16191.83
682.35	16070.12
682.49	16215.23
682.62	15901.60
682.76	15800.96
682.90	15714.36
683.04	15613.71
683.17	15660.52
683.31	15522.43
683.45	15328.17
683.59	15122.20
683.72	15108.16
683.86	14754.74
684.00	14965.39
684.13	14768.78
684.27	14665.80
684.41	14920.92
684.55	14759.42
684.68	14918.57
684.82	15229.87
684.96	14750.06
685.09	14649.41
685.23	14239.82
685.37	14274.93
685.50	14178.97
685.64	14544.09
685.78	14075.98
685.91	14087.68
686.05	14022.15
686.19	13642.98
686.32	12802.73
686.46	11513.10
686.60	9909.83
686.73	9434.70
686.87	8751.26
687.01	8608.49
687.14	8922.12
687.28	9177.24
687.42	9614.92
687.55	10057.28
687.69	10691.57
687.82	11042.65
687.96	11576.29
688.10	11641.82
688.23	11403.09
688.37	11185.42
688.50	10944.34
688.64	10850.72
688.78	10630.71
688.91	10679.86
689.05	10799.23
689.18	10492.62
689.32	10345.17
689.46	10619.01
689.59	10803.91
689.73	10696.25
689.86	10553.48
690.00	10836.68
690.13	10923.28
690.27	10750.08
690.41	11215.85
690.54	10738.38
690.68	10864.77
690.81	11066.05
690.95	10932.64
691.08	11063.71
691.22	10981.79
691.35	10939.66
691.49	11101.16
691.62	11204.14
691.76	11150.31
691.89	10869.45
692.03	10759.44
692.16	10628.37
692.30	10703.27
692.43	10644.76
692.57	10724.33
692.70	10464.54
692.84	10429.43
692.97	10239.84
693.11	10359.21
693.24	10228.14
693.38	10134.52
693.51	10160.27
693.65	10246.87
693.78	9832.59
693.92	9921.53
694.05	9968.34
694.19	9802.16
694.32	10019.83
694.45	9977.70
694.59	9802.16
694.72	9928.55
694.86	9832.59
694.99	9593.86
695.13	9540.02
695.26	9497.89
695.39	9507.26
695.53	9558.75
695.66	9446.40
695.80	9586.83
695.93	9511.94
696.07	9699.18
696.20	9675.77
696.33	9809.19
696.47	9863.02
696.60	9811.53
696.73	9858.34
696.87	9949.62
697.00	9762.37
697.14	9738.97
697.27	9703.86
697.40	9568.11
697.54	9165.54
697.67	9074.26
697.80	9090.64
697.94	8994.68
698.07	8912.76
698.21	9036.81
698.34	8830.84
698.47	8861.27
698.61	8456.36
698.74	8571.04
698.87	8713.81
699.01	8638.92
699.14	8636.58
699.27	8610.83
699.40	8702.11
699.54	8475.08
699.67	8388.48
699.80	8571.04
699.94	8140.38
700.07	8140.38
700.20	7798.66
700.34	7740.15
700.47	7796.32
700.60	7920.37
700.73	7967.18
700.87	7918.03
701.00	7845.48
701.13	7761.22
701.26	7763.56
701.40	7445.24
701.53	7552.91
701.66	7651.21
701.79	7772.92
701.93	7686.32
702.06	7817.39
702.19	7597.38
702.32	7473.33
702.46	7250.98
702.59	7499.08
702.72	7302.47
702.85	7478.01
702.99	7552.91
703.12	7571.63
703.25	7461.63
703.38	7330.56
703.51	7281.41
703.65	7155.02
703.78	7206.51
703.91	7236.94
704.04	7311.83
704.17	7119.91
704.31	7162.04
704.44	7131.61
704.57	7115.23
704.70	7096.50
704.83	7126.93
704.96	6881.18
705.10	6993.52
705.23	6829.68
>>>>>End Processed Spectral Data<<<<<
