SpectraSuite Data File
++++++++++++++++++++++++++++++++++++
Date: Mon Oct 07 14:54:56 GMT-05:00 2013
User: price-jones
Dark Spectrum Present: No
Reference Spectrum Present: No
Number of Sampled Component Spectra: 1
Spectrometers: USB2+H05261
Integration Time (usec): 10000 (USB2+H05261)
Spectra Averaged: 1 (USB2+H05261)
Boxcar Smoothing: 0 (USB2+H05261)
Correct for Electrical Dark: No (USB2+H05261)
Strobe/Lamp Enabled: No (USB2+H05261)
Correct for Detector Non-linearity: No (USB2+H05261)
Correct for Stray Light: No (USB2+H05261)
Number of Pixels in Processed Spectrum: 2048
>>>>>Begin Processed Spectral Data<<<<<
365.73	0.00
365.92	0.00
366.12	0.00
366.32	0.00
366.52	0.00
366.72	0.00
366.91	0.00
367.11	0.00
367.31	0.00
367.51	0.00
367.70	0.00
367.90	0.00
368.10	0.00
368.30	0.00
368.49	0.00
368.69	0.00
368.89	0.00
369.09	0.00
369.28	0.00
369.48	0.00
369.68	0.00
369.87	0.00
370.07	0.00
370.27	0.00
370.47	428.32
370.66	2548.84
370.86	3094.19
371.06	3229.94
371.25	3171.43
371.45	2832.05
371.65	2506.71
371.84	2586.29
372.04	2864.82
372.24	3000.57
372.44	3087.17
372.63	2953.76
372.83	2609.70
373.03	2441.18
373.22	2324.15
373.42	2485.65
373.62	2878.86
373.81	2939.71
374.01	2832.05
374.21	2502.03
374.40	2436.50
374.60	2630.76
374.79	3150.36
374.99	3576.34
375.19	3494.42
375.38	3583.36
375.58	3508.46
375.78	3482.72
375.97	3508.46
376.17	3531.87
376.37	3840.82
376.56	3709.75
376.76	4032.74
376.95	4280.84
377.15	4608.51
377.35	4807.46
377.54	5062.58
377.74	5095.35
377.93	5015.77
378.13	4873.00
378.33	4479.79
378.52	4046.79
378.72	3880.61
378.91	4004.66
379.11	3845.50
379.31	3592.72
379.50	4060.83
379.70	4241.05
379.89	4568.73
380.09	4854.27
380.28	4919.81
380.48	4800.44
380.68	4762.99
380.87	4751.29
381.07	4308.93
381.26	4074.87
381.46	3770.60
381.65	3508.46
381.85	3611.45
382.04	3185.47
382.24	3077.80
382.43	2995.89
382.63	2918.65
382.83	2897.58
383.02	2810.98
383.22	2860.13
383.41	2974.82
383.61	3253.34
383.80	3815.07
384.00	4358.08
384.19	4830.87
384.39	4905.76
384.58	5025.13
384.78	4739.58
384.97	4667.03
385.17	4456.38
385.36	4217.65
385.56	4166.15
385.75	4418.93
385.95	4821.50
386.14	5078.96
386.34	4945.55
386.53	4823.84
386.72	4423.61
386.92	4741.93
387.11	4983.00
387.31	5165.56
387.50	4978.32
387.70	4905.76
387.89	4898.74
388.09	4767.67
388.28	4781.71
388.48	5053.22
388.67	5350.46
388.86	5975.39
389.06	6221.14
389.25	6497.33
389.45	6576.91
389.64	6516.05
389.84	6581.59
390.03	6363.92
390.22	6427.11
390.42	6782.87
390.61	7258.00
390.81	7559.93
391.00	7618.44
391.19	7604.40
391.39	7208.85
391.58	6745.42
391.78	6509.03
391.97	6216.46
392.16	5760.06
392.36	5121.09
392.55	3962.53
392.75	3075.46
392.94	2658.85
393.13	2906.95
393.33	3520.17
393.52	4381.48
393.71	5359.83
393.91	5949.64
394.10	6480.94
394.29	7183.10
394.49	7662.91
394.68	8334.65
394.88	8374.44
395.07	8390.82
395.26	8189.53
395.46	7969.52
395.65	7665.25
395.84	6256.25
396.04	5296.63
396.23	4133.39
396.42	3634.85
396.62	3730.81
396.81	4774.69
397.00	6171.99
397.19	7435.88
397.39	8510.19
397.58	9392.57
397.77	10033.88
397.97	10279.63
398.16	10352.19
398.35	10930.30
398.55	10967.75
398.74	11592.67
398.93	11744.81
399.12	11447.56
399.32	11110.52
399.51	11599.70
399.70	12294.83
399.90	11978.86
400.09	12020.99
400.28	11967.16
400.47	12056.10
400.67	12964.23
400.86	13179.56
401.05	12992.31
401.24	12622.51
401.44	13193.60
401.63	13238.07
401.82	13376.16
402.01	13282.54
402.21	13523.62
402.40	13303.60
402.59	12814.43
402.78	12341.64
402.97	12051.42
403.17	12903.37
403.36	13535.32
403.55	13785.76
403.74	14160.24
403.93	13055.51
404.13	12400.16
404.32	12519.53
404.51	13184.24
404.70	14087.68
404.89	13905.12
405.09	13394.89
405.28	13235.73
405.47	13441.70
405.66	13041.46
405.85	12603.78
406.05	12610.81
406.24	13263.82
406.43	13233.39
406.62	13785.76
406.81	13497.87
407.00	13280.20
407.20	12835.50
407.39	13366.80
407.58	13949.59
407.77	14417.70
407.96	14801.55
408.15	14930.28
408.34	15330.51
408.54	15700.31
408.73	15681.59
408.92	15421.79
409.11	15037.94
409.30	14260.88
409.49	13074.23
409.68	12465.69
409.87	12416.54
410.07	13610.22
410.26	14469.19
410.45	15309.44
410.64	15571.58
410.83	15967.13
411.02	16468.01
411.21	16835.47
411.40	16610.78
411.59	16547.59
411.78	16833.13
411.98	16533.54
412.17	16666.95
412.36	16290.13
412.55	16620.14
412.74	15845.43
412.93	16107.57
413.12	16542.91
413.31	17458.06
413.50	17240.39
413.69	17371.46
413.88	16774.62
414.07	16709.08
414.26	17025.06
414.45	17312.94
414.64	17743.60
414.83	17331.67
415.02	17298.90
415.22	17577.42
415.41	17771.69
415.60	18246.82
415.79	19030.90
415.98	19295.38
416.17	19117.50
416.36	19138.56
416.55	18913.87
416.74	17837.22
416.93	17205.28
417.12	17638.28
417.31	17820.84
417.50	18183.62
417.69	18401.29
417.88	18583.85
418.07	18705.56
418.26	18302.99
418.45	18541.72
418.64	19066.00
418.83	20163.72
419.02	19655.82
419.21	19122.18
419.39	18068.94
419.58	17596.15
419.77	18167.24
419.96	19054.30
420.15	19510.71
420.34	20320.53
420.53	20552.24
420.72	21329.30
420.91	20889.28
421.10	20297.13
421.29	20388.41
421.48	19943.70
421.67	20814.38
421.86	19719.01
422.05	18242.14
422.24	16372.05
422.43	17525.93
422.61	19061.32
422.80	19770.51
422.99	19847.74
423.18	19302.40
423.37	19236.86
423.56	19115.16
423.75	19351.55
423.94	20105.20
424.13	18841.31
424.32	18735.99
424.50	18778.12
424.69	18998.13
424.88	18941.96
425.07	18857.70
425.26	19197.07
425.45	18588.53
425.64	18412.99
425.83	18768.76
426.01	19709.65
426.20	20046.69
426.39	19414.74
426.58	17614.87
426.77	16650.57
426.96	16229.27
427.15	17614.87
427.33	18738.33
427.52	19257.93
427.71	19168.99
427.90	18750.03
428.09	18424.70
428.28	18202.35
428.46	17261.45
428.65	17029.74
428.84	17940.21
429.03	18288.95
429.22	17060.16
429.40	15873.51
429.59	14663.46
429.78	13046.15
429.97	13362.12
430.16	13013.38
430.34	12795.71
430.53	13420.63
430.72	14209.39
430.91	16091.18
431.10	18698.54
431.28	21336.32
431.47	22731.28
431.66	22459.78
431.85	20130.95
432.03	18618.96
432.22	18759.39
432.41	20456.28
432.60	21645.27
432.79	21771.66
432.97	22319.35
433.16	21411.22
433.35	19154.94
433.54	17233.36
433.72	16879.94
433.91	18267.88
434.10	20299.47
434.28	21806.77
434.47	22544.04
434.66	21404.20
434.85	20933.75
435.03	21231.00
435.22	21881.67
435.41	22764.05
435.59	23435.78
435.78	23597.28
435.97	24367.32
436.16	23786.86
436.34	23508.34
436.53	23330.46
436.72	23419.40
436.90	22089.98
437.09	22218.71
437.28	22033.80
437.46	22635.32
437.65	22174.24
437.84	20311.17
438.02	19218.14
438.21	19611.35
438.40	20449.26
438.58	21795.07
438.77	22532.34
438.96	22845.97
439.14	24203.48
439.33	24208.16
439.52	24327.53
439.70	23742.39
439.89	23168.96
440.08	23178.33
440.26	22993.42
440.45	23803.25
440.63	25640.57
440.82	26153.15
441.01	25818.45
441.19	25649.93
441.38	26382.52
441.57	27075.32
441.75	27566.83
441.94	27969.40
442.12	27641.73
442.31	28584.96
442.50	28554.54
442.68	27716.62
442.87	27122.13
443.05	26501.89
443.24	27466.19
443.43	27704.92
443.61	27843.01
443.80	28205.80
443.98	27681.52
444.17	27117.45
444.35	29134.99
444.54	29034.35
444.73	28620.07
444.91	27040.21
445.10	26401.24
445.28	25951.86
445.47	25301.19
445.65	25963.56
445.84	26139.10
446.02	27213.41
446.21	27529.38
446.39	27653.43
446.58	27754.07
446.77	28510.07
446.95	28559.22
447.14	29467.34
447.32	29443.94
447.51	28648.16
447.69	27630.02
447.88	27880.46
448.06	28779.23
448.25	28819.02
448.43	28411.76
448.62	28011.53
448.80	27496.61
448.99	27648.75
449.17	28634.11
449.36	29013.28
449.54	29661.61
449.73	29708.42
449.91	31426.37
450.10	32182.37
450.28	31810.22
450.46	32055.98
450.65	32161.30
450.83	31421.69
451.02	30981.67
451.20	30885.71
451.39	30822.51
451.57	30712.51
451.76	31007.42
451.94	30225.68
452.13	29347.98
452.31	28657.52
452.49	27262.56
452.68	28222.18
452.86	28074.73
453.05	27810.25
453.23	29036.69
453.42	30022.05
453.60	30295.89
453.78	30749.96
453.97	30267.81
454.15	30436.33
454.34	29200.52
454.52	29270.74
454.70	29137.33
454.89	29631.18
455.07	29689.70
455.26	29993.97
455.44	31271.90
455.62	31807.88
455.81	32163.64
455.99	31754.05
456.17	30859.96
456.36	31005.08
456.54	31646.38
456.73	31754.05
456.91	32334.50
457.09	32444.51
457.28	33195.82
457.46	32093.43
457.64	32233.86
457.83	30654.00
458.01	30209.29
458.19	31290.62
458.38	31653.40
458.56	32432.80
458.74	31648.72
458.93	30986.35
459.11	30595.48
459.29	31030.82
459.48	31157.21
459.66	30700.81
459.84	31850.01
460.03	31971.72
460.21	32699.62
460.39	33064.75
460.57	32708.99
460.76	33132.62
460.94	32334.50
461.12	32416.42
461.31	32589.62
461.49	32694.94
461.67	32950.06
461.85	33832.44
462.04	33942.45
462.22	34082.88
462.40	33755.21
462.59	33633.50
462.77	33607.75
462.95	33916.70
463.13	33556.26
463.32	32442.17
463.50	31871.07
463.68	31981.08
463.86	33134.96
464.05	32226.84
464.23	31330.41
464.41	31775.11
464.59	31440.42
464.78	33790.31
464.96	32931.34
465.14	32292.37
465.32	33174.75
465.50	33827.76
465.69	33582.01
465.87	33586.69
466.05	32116.83
466.23	30724.21
466.41	30504.20
466.60	31491.91
466.78	32285.35
466.96	32570.90
467.14	32818.99
467.32	32652.81
467.51	32582.60
467.69	31466.16
467.87	32432.80
468.05	32732.39
468.23	32376.63
468.41	32367.27
468.60	31971.72
468.78	32219.81
468.96	32217.47
469.14	33392.42
469.32	33460.30
469.50	31899.16
469.69	32231.52
469.87	31328.07
470.05	31314.03
470.23	31721.28
470.41	31810.22
470.59	32891.55
470.77	32620.05
470.95	33481.36
471.14	34089.90
471.32	33993.94
471.50	34934.84
471.68	35079.95
471.86	35426.35
472.04	35807.86
472.22	35269.53
472.40	33652.22
472.58	33263.69
472.77	33741.16
472.95	34836.53
473.13	35028.46
473.31	34150.76
473.49	34705.46
473.67	35283.58
473.85	35658.06
474.03	36563.85
474.21	36451.50
474.39	36844.71
474.57	36730.03
474.75	36158.94
474.93	36507.68
475.12	35271.87
475.30	36463.21
475.48	36245.54
475.66	37317.50
475.84	36002.12
476.02	35948.29
476.20	35271.87
476.38	35772.75
476.56	37298.78
476.74	37184.09
476.92	37446.23
477.10	38937.15
477.28	39339.72
477.46	39281.21
477.64	39461.43
477.82	40018.48
478.00	39269.51
478.18	39192.27
478.36	39309.30
478.54	39054.18
478.72	40114.44
478.90	41525.78
479.08	42525.19
479.26	42195.18
479.44	42281.78
479.62	41319.82
479.80	41130.23
479.98	42155.39
480.16	42742.86
480.34	41771.54
480.52	42871.59
480.70	42183.48
480.88	42972.24
481.06	43533.96
481.24	43124.37
481.41	44137.82
481.59	44299.32
481.77	44109.74
481.95	43550.35
482.13	44208.04
482.31	44217.40
482.49	44650.40
482.67	45010.84
482.85	45380.65
483.03	45914.29
483.21	45116.17
483.39	45670.87
483.57	44514.65
483.74	45368.94
483.92	45251.92
484.10	45614.70
484.28	46199.83
484.46	47131.37
484.64	46806.03
484.82	45865.14
485.00	45158.30
485.18	44107.40
485.35	42602.43
485.53	39021.41
485.71	36037.23
485.89	37050.68
486.07	39885.07
486.25	42450.30
486.43	43636.95
486.61	43709.50
486.78	44210.38
486.96	45603.00
487.14	46513.47
487.32	47208.61
487.50	47751.61
487.68	48769.74
487.85	49254.23
488.03	48889.11
488.21	49191.04
488.39	48395.26
488.57	48109.71
488.75	47931.83
488.92	49085.72
489.10	51208.58
489.28	52123.73
489.46	52720.57
489.64	52362.46
489.81	52999.09
489.99	52648.01
490.17	52926.53
490.35	53347.83
490.53	52725.25
490.70	52364.81
490.88	52353.10
491.06	53109.10
491.24	52755.68
491.41	50766.22
491.59	50127.25
491.77	50546.21
491.95	51047.08
492.13	52416.30
492.30	53535.07
492.48	53883.81
492.66	54380.01
492.84	54092.12
493.01	53506.99
493.19	53027.18
493.37	52739.29
493.54	53350.17
493.72	54508.74
493.90	55093.87
494.08	55386.44
494.25	55664.96
494.43	55529.21
494.61	56479.47
494.79	56413.93
494.96	56327.33
495.14	55416.86
495.32	54176.38
495.49	54813.01
495.67	55103.23
495.85	56219.67
496.02	56645.65
496.20	56308.61
496.38	56385.85
496.55	56046.47
496.73	56439.68
496.91	57268.23
497.09	57715.27
497.26	56835.23
497.44	56189.24
497.62	56275.84
497.79	55679.00
497.97	54246.60
498.14	54712.36
498.32	56217.33
498.50	56638.62
498.67	56727.56
498.85	56952.26
499.03	57195.67
499.20	57586.54
499.38	57167.58
499.56	57347.81
499.73	57146.52
499.91	56959.28
500.08	55164.09
500.26	55136.00
500.44	55753.90
500.61	57034.17
500.79	55894.33
500.97	55997.32
501.14	55749.22
501.32	55735.18
501.49	55683.69
501.67	55938.80
501.84	56364.78
502.02	56186.90
502.20	56537.98
502.37	56954.60
502.55	56966.30
502.72	57518.67
502.90	57471.85
503.07	57256.53
503.25	56940.55
503.43	56432.66
503.60	55936.46
503.78	55758.58
503.95	55913.06
504.13	57827.62
504.30	57621.65
504.48	57457.81
504.65	56816.50
504.83	56514.58
505.01	57890.81
505.18	57771.44
505.36	58710.00
505.53	58583.61
505.71	58972.14
505.88	57977.41
506.06	57504.62
506.23	57645.05
506.41	57455.47
506.58	58129.54
506.76	57963.37
506.93	57471.85
507.11	57336.10
507.28	58136.57
507.46	57867.40
507.63	57687.18
507.81	57083.33
507.98	56947.57
508.16	57925.92
508.33	58625.74
508.50	59145.34
508.68	59538.55
508.85	59894.31
509.03	59798.35
509.20	58754.47
509.38	57581.86
509.55	57663.78
509.73	57600.58
509.90	59014.27
510.08	58695.95
510.25	58693.61
510.42	58323.81
510.60	57638.03
510.77	58302.74
510.95	59157.04
511.12	58880.86
511.30	59194.49
511.47	59327.90
511.64	59250.66
511.82	59096.19
511.99	58101.46
512.17	57729.31
512.34	57556.11
512.51	57946.98
512.69	58541.48
512.86	58185.72
513.04	58192.74
513.21	58012.52
513.38	57165.24
513.56	57804.21
513.73	57897.83
513.90	57771.44
514.08	57972.73
514.25	57642.71
514.43	57907.19
514.60	57677.82
514.77	58174.02
514.95	58485.31
515.12	58101.46
515.29	59203.85
515.47	59674.30
515.64	58930.01
515.81	58412.75
515.99	57333.76
516.16	56048.81
516.33	54234.89
516.51	53485.92
516.68	51662.64
516.85	51257.73
517.03	53722.32
517.20	55891.99
517.37	57609.95
517.54	58560.20
517.72	56547.34
517.89	54169.36
518.06	53425.07
518.24	54340.22
518.41	56420.95
518.58	57368.87
518.75	57176.95
518.93	57441.43
519.10	57418.02
519.27	57869.75
519.45	57733.99
519.62	57635.69
519.79	58220.83
519.96	57925.92
520.14	57696.55
520.31	57097.37
520.48	57399.30
520.65	57745.70
520.83	58241.89
521.00	58438.50
521.17	58174.02
521.34	58251.25
521.52	59133.63
521.69	59852.18
521.86	59271.73
522.03	58684.25
522.20	58330.83
522.38	57511.64
522.55	57411.00
522.72	57923.58
522.89	58141.25
523.07	57841.66
523.24	58415.09
523.41	58878.52
523.58	58604.67
523.75	58932.35
523.92	59180.45
524.10	59767.92
524.27	59421.52
524.44	59786.64
524.61	59229.60
524.78	59194.49
524.96	59325.56
525.13	59702.38
525.30	59568.97
525.47	58724.04
525.64	58726.38
525.81	58150.61
525.98	56935.87
526.16	55332.60
526.33	53741.04
526.50	54387.03
526.67	53923.60
526.84	55213.24
527.01	57364.19
527.18	57942.30
527.36	58468.92
527.53	58321.47
527.70	57909.53
527.87	58202.10
528.04	58763.83
528.21	58974.48
528.38	60013.68
528.55	60736.90
528.72	61048.19
528.89	60732.22
529.07	59524.50
529.24	58578.93
529.41	58796.60
529.58	58639.78
529.75	59290.45
529.92	59157.04
530.09	59557.27
530.26	59224.92
530.43	59957.50
530.60	59714.09
530.77	60109.64
530.94	60357.74
531.11	59288.11
531.28	59023.63
531.46	59648.55
531.63	59709.41
531.80	59566.63
531.97	59011.93
532.14	58314.45
532.31	57354.83
532.48	56690.12
532.65	56631.60
532.82	57256.53
532.99	58031.24
533.16	59407.48
533.33	59494.08
533.50	58972.14
533.67	58653.82
533.84	57932.94
534.01	58162.31
534.18	58967.46
534.35	58714.68
534.52	58040.60
534.69	58122.52
534.86	58422.11
535.03	58239.55
535.20	58986.18
535.37	59540.89
535.54	59779.62
535.71	60624.56
535.88	60313.26
536.05	58972.14
536.22	58796.60
536.38	58829.37
536.55	58159.97
536.72	57539.73
536.89	57792.51
537.06	58550.84
537.23	58255.93
537.40	58511.05
537.57	59054.06
537.74	58330.83
537.91	58915.96
538.08	58557.86
538.25	58599.99
538.42	58244.23
538.59	57743.36
538.75	57279.93
538.92	58003.16
539.09	58450.20
539.26	57661.44
539.43	57521.01
539.60	57312.70
539.77	56832.89
539.94	57085.67
540.11	56540.32
540.28	55938.80
540.44	55901.36
540.61	56516.92
540.78	57394.62
540.95	57467.17
541.12	57696.55
541.29	57972.73
541.46	58309.77
541.62	57909.53
541.79	57095.03
541.96	56065.19
542.13	56767.35
542.30	57563.14
542.47	57088.01
542.63	57748.04
542.80	57579.52
542.97	57097.37
543.14	57172.27
543.31	57193.33
543.48	58047.63
543.64	58988.52
543.81	59693.02
543.98	59721.11
544.15	57315.04
544.32	57556.11
544.48	58284.02
544.65	57403.98
544.82	58824.68
544.99	58728.72
545.16	58403.39
545.32	58408.07
545.49	58841.07
545.66	59107.89
545.83	58178.70
546.00	58216.14
546.16	58665.53
546.33	57450.79
546.50	56907.79
546.67	57134.82
546.83	57506.96
547.00	56879.70
547.17	56865.66
547.34	56093.28
547.50	57408.66
547.67	57134.82
547.84	57471.85
548.00	58141.25
548.17	57921.24
548.34	57476.54
548.51	57815.91
548.67	57532.71
548.84	57726.97
549.01	57247.16
549.18	56769.69
549.34	57148.86
549.51	56772.03
549.68	57228.44
549.84	57198.01
550.01	57764.42
550.18	56992.04
550.34	57427.38
550.51	57277.59
550.68	57588.88
550.84	56451.38
551.01	56839.91
551.18	56488.83
551.34	57219.08
551.51	57357.17
551.68	57556.11
551.84	58426.79
552.01	58155.29
552.18	57221.42
552.34	56692.46
552.51	56783.74
552.68	57109.07
552.84	56903.10
553.01	57291.63
553.18	57607.61
553.34	57254.18
553.51	58129.54
553.67	58014.86
553.84	57352.49
554.01	56643.30
554.17	57055.24
554.34	58155.29
554.51	57921.24
554.67	58630.42
554.84	58017.20
555.00	57537.39
555.17	57553.77
555.33	57446.11
555.50	57254.18
555.67	57448.45
555.83	56598.83
556.00	55573.68
556.16	54925.35
556.33	55667.30
556.50	55168.77
556.66	54995.57
556.83	54838.75
556.99	56439.68
557.16	56568.41
557.32	56516.92
557.49	55936.46
557.65	56121.37
557.82	56252.44
557.98	56266.48
558.15	55784.33
558.32	54691.30
558.48	55393.46
558.65	54218.51
558.81	53954.03
558.98	54190.42
559.14	54281.70
559.31	54628.10
559.47	55271.75
559.64	54578.95
559.80	54646.83
559.97	55154.72
560.13	55529.21
560.30	57315.04
560.46	57368.87
560.63	57052.90
560.79	57095.03
560.96	55100.89
561.12	53549.12
561.29	54174.04
561.45	54560.23
561.61	54838.75
561.78	55414.52
561.94	54796.62
562.11	54466.61
562.27	54773.22
562.44	54426.82
562.60	55735.18
562.77	55887.31
562.93	56006.68
563.10	55199.19
563.26	54145.95
563.42	54255.96
563.59	53979.78
563.75	54443.20
563.92	55166.43
564.08	55131.32
564.24	55341.97
564.41	55168.77
564.57	55353.67
564.74	54401.07
564.90	53820.62
565.07	54012.54
565.23	53963.39
565.39	53528.05
565.56	53869.77
565.72	53495.28
565.88	54028.93
566.05	54686.62
566.21	55290.48
566.38	55274.09
566.54	55405.16
566.70	55828.80
566.87	54983.86
567.03	54712.36
567.19	55002.59
567.36	55072.81
567.52	54115.53
567.68	53874.45
567.85	53333.79
568.01	52947.60
568.17	51915.42
568.34	52720.57
568.50	53247.19
568.66	52959.30
568.83	54267.66
568.99	53497.62
569.15	52563.75
569.32	53127.82
569.48	50770.90
569.64	51599.45
569.81	52645.67
569.97	51943.51
570.13	52875.04
570.30	53446.13
570.46	52680.78
570.62	51140.71
570.78	51063.47
570.95	51655.62
571.11	52811.85
571.27	53120.80
571.43	53937.65
571.60	53443.79
571.76	52411.62
571.92	53544.44
572.09	54216.17
572.25	54073.40
572.41	54089.78
572.57	53066.97
572.74	52750.99
572.90	53385.28
573.06	54220.85
573.22	53265.91
573.38	52652.69
573.55	52713.55
573.71	53783.17
573.87	53286.98
574.03	53820.62
574.20	52715.89
574.36	53130.16
574.52	52385.87
574.68	51161.77
574.84	50782.60
575.01	50506.42
575.17	51007.29
575.33	50452.59
575.49	50838.78
575.65	51503.49
575.82	50983.89
575.98	50490.04
576.14	51241.35
576.30	50923.04
576.46	49666.17
576.62	50766.22
576.79	51145.39
576.95	52514.60
577.11	52626.95
577.27	53600.61
577.43	51484.76
577.59	51295.18
577.75	50770.90
577.92	51126.66
578.08	51522.21
578.24	51119.64
578.40	51150.07
578.56	50422.16
578.72	51428.59
578.88	51004.95
579.04	51629.88
579.21	52538.01
579.37	52299.27
579.53	51459.02
579.69	51398.16
579.85	51569.02
580.01	51278.80
580.17	50368.33
580.33	51231.99
580.49	50368.33
580.65	51260.07
580.82	51648.60
580.98	51121.98
581.14	50656.21
581.30	50965.17
581.46	51767.97
581.62	51105.60
581.78	51239.01
581.94	51774.99
582.10	50944.10
582.26	51372.42
582.42	52065.22
582.58	52065.22
582.74	51997.34
582.90	51686.05
583.06	51728.18
583.22	51409.87
583.38	52479.49
583.54	52371.83
583.70	50845.80
583.86	50951.12
584.02	51182.84
584.18	51007.29
584.34	51295.18
584.50	51613.49
584.66	50885.59
584.82	49900.22
584.98	50038.31
585.14	50197.47
585.30	48591.86
585.46	48879.75
585.62	48161.20
585.78	49696.59
585.94	49221.47
586.10	49909.58
586.26	49558.50
586.42	48458.45
586.58	49577.23
586.74	49162.95
586.90	49352.54
587.06	50347.26
587.22	50656.21
587.38	50295.77
587.54	50417.48
587.70	48877.41
587.86	47894.38
588.02	48428.02
588.18	48229.08
588.34	46473.68
588.49	44858.71
588.65	42038.36
588.81	42176.45
588.97	42464.34
589.13	41839.42
589.29	41638.13
589.45	42651.58
589.61	44994.46
589.77	46894.97
589.93	46564.96
590.08	47110.30
590.24	48179.93
590.40	48423.34
590.56	48109.71
590.72	47175.84
590.88	46211.54
591.04	47688.42
591.20	48413.98
591.35	47971.62
591.51	48060.56
591.67	49155.93
591.83	48076.94
591.99	47152.43
592.15	47915.45
592.31	47285.84
592.46	47704.80
592.62	46834.12
592.78	47047.11
592.94	46644.54
593.10	46094.51
593.26	46136.64
593.41	46071.10
593.57	47129.03
593.73	45656.83
593.89	47316.27
594.05	45720.02
594.20	45301.07
594.36	46148.34
594.52	45375.97
594.68	44151.87
594.84	44069.95
594.99	45235.53
595.15	45778.54
595.31	45610.02
595.47	45153.62
595.62	46066.42
595.78	46480.70
595.94	46171.75
596.10	45738.75
596.25	45024.89
596.41	46665.60
596.57	46487.72
596.73	45977.48
596.88	45301.07
597.04	45455.54
597.20	46003.23
597.36	45745.77
597.51	46036.00
597.67	46036.00
597.83	44608.27
597.99	44818.92
598.14	43828.87
598.30	44624.65
598.46	43929.51
598.61	44926.58
598.77	44858.71
598.93	45530.44
599.09	45586.61
599.24	45900.25
599.40	44926.58
599.56	45659.17
599.71	45958.76
599.87	45551.51
600.03	44051.22
600.18	44027.82
600.34	42913.72
600.50	44687.85
600.65	44839.98
600.81	43927.17
600.97	44926.58
601.12	44891.48
601.28	44566.14
601.44	43084.58
601.59	42342.63
601.75	44505.29
601.91	44690.19
602.06	43503.54
602.22	44383.58
602.37	43936.54
602.53	44243.15
602.69	44423.37
602.84	44598.91
603.00	44957.01
603.16	44619.97
603.31	44158.89
603.47	43833.55
603.62	44509.97
603.78	44282.94
603.94	43690.78
604.09	45294.05
604.25	44502.95
604.40	45118.51
604.56	45918.97
604.71	45251.92
604.87	45633.42
605.03	44701.89
605.18	43576.09
605.34	42923.08
605.49	42890.32
605.65	43842.92
605.80	43295.23
605.96	43718.87
606.12	42817.76
606.27	44493.58
606.43	43803.13
606.58	42651.58
606.74	42265.39
606.89	43257.78
607.05	42850.53
607.20	42492.43
607.36	41586.64
607.51	41544.51
607.67	40451.48
607.82	41291.73
607.98	42052.41
608.13	43400.55
608.29	43440.34
608.44	42904.36
608.60	44055.90
608.75	43950.58
608.91	43379.49
609.06	41497.70
609.22	43189.91
609.37	43014.37
609.53	42593.07
609.68	40910.22
609.84	40287.64
609.99	40992.14
610.15	42157.73
610.30	42281.78
610.46	41626.43
610.61	42302.84
610.76	42614.13
610.92	42302.84
611.07	42162.41
611.23	42469.02
611.38	41434.50
611.54	41060.02
611.69	40772.13
611.84	41249.60
612.00	40713.62
612.15	40142.53
612.31	41874.52
612.46	40194.02
612.62	40353.18
612.77	41237.90
612.92	42230.29
613.08	41017.89
613.23	39548.03
613.39	38906.73
613.54	39051.84
613.69	39206.31
613.85	39765.70
614.00	39772.72
614.15	39763.36
614.31	39093.97
614.46	39278.87
614.62	38967.58
614.77	38455.00
614.92	38899.70
615.08	38312.23
615.23	38239.67
615.38	39112.69
615.54	39768.04
615.69	37535.17
615.84	36533.42
616.00	36273.62
616.15	37177.07
616.30	37752.84
616.46	36994.51
616.61	37731.78
616.76	37675.60
616.92	38000.94
617.07	38169.46
617.22	38459.68
617.37	37621.77
617.53	38541.60
617.68	38181.16
617.83	39608.89
617.99	38043.07
618.14	38747.57
618.29	38359.04
618.45	38663.31
618.60	38831.83
618.75	39393.56
618.90	39122.05
619.06	37109.19
619.21	37703.69
619.36	38993.32
619.51	36947.70
619.67	36423.42
619.82	37940.08
619.97	39187.59
620.12	37322.18
620.28	38232.65
620.43	38316.91
620.58	37904.98
620.73	37504.74
620.89	37177.07
621.04	37841.78
621.19	36678.54
621.34	35945.95
621.49	36027.87
621.65	37237.92
621.80	37448.57
621.95	36828.33
622.10	36498.31
622.25	35449.75
622.41	36039.57
622.56	34146.08
622.71	35512.95
622.86	35241.45
623.01	36517.04
623.16	36240.86
623.32	36257.24
623.47	37060.04
623.62	36301.71
623.77	35709.55
623.92	35189.95
624.07	33727.12
624.23	33755.21
624.38	35672.10
624.53	33418.17
624.68	33532.86
624.83	33792.65
624.98	33429.87
625.13	33214.54
625.29	35061.22
625.44	34745.25
625.59	34976.97
625.74	36247.88
625.89	36046.59
626.04	34195.23
626.19	35021.44
626.34	33113.90
626.49	32613.02
626.65	33053.05
626.80	34103.95
626.95	33883.94
627.10	33673.29
627.25	33083.47
627.40	31686.17
627.55	31395.95
627.70	30183.55
627.85	31576.17
628.00	31840.65
628.15	31543.40
628.30	30644.63
628.45	31749.37
628.60	32210.45
628.76	32385.99
628.91	31948.31
629.06	30630.59
629.21	31580.85
629.36	31728.30
629.51	31894.48
629.66	32435.14
629.81	32582.60
629.96	33249.65
630.11	32133.21
630.26	33244.97
630.41	32683.24
630.56	32070.02
630.71	31969.38
630.86	32889.21
631.01	32954.74
631.16	31681.49
631.31	30342.70
631.46	31370.20
631.61	30799.11
631.76	30520.59
631.91	31541.06
632.06	31302.32
632.21	31239.13
632.36	32294.71
632.51	33118.58
632.66	33729.46
632.81	33085.81
632.96	31967.04
633.10	32168.32
633.25	32549.83
633.40	31938.95
633.55	32266.63
633.70	31328.07
633.85	30017.37
634.00	30260.79
634.15	32334.50
634.30	32283.01
634.45	31517.65
634.60	31936.61
634.75	32692.60
634.90	31527.02
635.05	31005.08
635.19	30288.87
635.34	30822.51
635.49	30478.46
635.64	30373.13
635.79	30976.99
635.94	30794.43
636.09	30157.80
636.24	30850.60
636.39	30459.73
636.53	30937.20
636.68	29905.02
636.83	30401.22
636.98	30916.14
637.13	31522.34
637.28	30389.52
637.43	30462.07
637.57	31157.21
637.72	31721.28
637.87	31377.22
638.02	31400.63
638.17	31721.28
638.32	31267.22
638.46	30506.54
638.61	31421.69
638.76	30403.56
638.91	31189.98
639.06	30672.72
639.20	31541.06
639.35	30038.44
639.50	29570.33
639.65	29165.42
639.80	28978.17
639.94	29017.96
640.09	29003.92
640.24	30831.88
640.39	30253.76
640.54	29991.62
640.68	29476.71
640.83	29193.50
640.98	28276.01
641.13	27281.28
641.27	27571.51
641.42	28346.23
641.57	29593.73
641.72	29635.86
641.86	30267.81
642.01	29982.26
642.16	29144.35
642.31	28566.24
642.45	30050.14
642.60	29446.28
642.75	30031.41
642.90	31866.39
643.04	31182.96
643.19	30452.71
643.34	29392.45
643.48	28278.35
643.63	28334.53
643.78	28652.84
643.93	29359.68
644.07	28641.14
644.22	28531.13
644.37	27704.92
644.51	27730.67
644.66	29474.37
644.81	29846.51
644.95	28025.57
645.10	28769.86
645.25	29418.19
645.39	29752.89
645.54	28091.11
645.69	26930.20
645.83	26206.98
645.98	25703.76
646.13	24631.80
646.27	25312.89
646.42	27115.11
646.57	27555.13
646.71	27632.36
646.86	27089.36
647.00	27192.34
647.15	25642.91
647.30	25088.20
647.44	25352.68
647.59	25958.88
647.74	25497.80
647.88	25532.90
648.03	25766.96
648.17	26347.41
648.32	26909.14
648.47	26796.79
648.61	26497.20
648.76	25954.20
648.90	25333.96
649.05	24936.07
649.20	24779.25
649.34	25219.27
649.49	24664.57
649.63	25034.37
649.78	25694.40
649.92	26176.55
650.07	26838.92
650.21	26288.90
650.36	26455.08
650.51	26670.40
650.65	27051.91
650.80	26546.36
650.94	26937.23
651.09	26670.40
651.23	25542.27
651.38	26232.72
651.52	26078.25
651.67	25579.71
651.81	26569.76
651.96	26696.15
652.10	26352.09
652.25	26249.11
652.39	26017.40
652.54	26614.23
652.68	26050.16
652.83	25523.54
652.97	25888.67
653.12	25467.37
653.26	25947.18
653.41	25336.30
653.55	25172.46
653.70	25270.76
653.84	24613.07
653.99	24004.53
654.13	23721.33
654.27	22806.18
654.42	23461.53
654.56	22122.74
654.71	22658.73
654.85	23101.09
655.00	23091.73
655.14	22487.87
655.29	22263.18
655.43	23618.35
655.57	21633.57
655.72	20142.65
655.86	18743.01
656.01	18986.43
656.15	20112.22
656.30	21476.76
656.44	22146.15
656.58	22988.74
656.73	22806.18
656.87	23012.15
657.01	22387.22
657.16	22948.95
657.30	23901.55
657.45	23508.34
657.59	24266.67
657.73	25060.12
657.88	25802.07
658.02	23899.21
658.16	23180.67
658.31	24025.60
658.45	23943.68
658.60	23442.81
658.74	21514.20
658.88	22946.61
659.03	22097.00
659.17	22794.48
659.31	22707.88
659.46	23325.78
659.60	23009.81
659.74	22171.89
659.89	22700.86
660.03	22389.56
660.17	22181.26
660.32	22340.41
660.46	22115.72
660.60	21872.31
660.74	22366.16
660.89	22405.95
661.03	22099.34
661.17	22473.82
661.32	22441.06
661.46	22890.44
661.60	23068.32
661.74	23377.27
661.89	23854.74
662.03	23620.69
662.17	23300.03
662.31	23587.92
662.46	23484.94
662.60	22370.84
662.74	22036.14
662.88	21198.23
663.03	20130.95
663.17	21245.04
663.31	21701.45
663.45	21195.89
663.60	20781.62
663.74	21991.67
663.88	22043.17
664.02	22368.50
664.17	21916.78
664.31	21734.21
664.45	21584.42
664.59	20816.72
664.73	22370.84
664.88	21649.96
665.02	21415.90
665.16	21846.56
665.30	22520.63
665.44	22352.12
665.59	22537.02
665.73	22295.94
665.87	21301.22
666.01	20952.48
666.15	21774.00
666.29	21266.11
666.44	21259.09
666.58	21151.42
666.72	21418.24
666.86	21252.06
667.00	21350.37
667.14	20524.16
667.28	20798.00
667.43	21142.06
667.57	21685.06
667.71	21729.53
667.85	20973.54
667.99	20329.89
668.13	20926.73
668.27	20912.69
668.41	20301.81
668.56	19924.98
668.70	20329.89
668.84	20985.24
668.98	20720.76
669.12	21664.00
669.26	21312.92
669.40	20437.56
669.54	19520.07
669.68	19190.05
669.82	18675.13
669.96	18958.34
670.10	18597.90
670.25	18356.82
670.39	19122.18
670.53	19192.39
670.67	19105.79
670.81	18707.90
670.95	18387.25
671.09	18689.18
671.23	18588.53
671.37	18087.66
671.51	19309.42
671.65	18586.19
671.79	18633.00
671.93	18602.58
672.07	18707.90
672.21	17898.08
672.35	17886.37
672.49	17921.48
672.63	19026.21
672.77	19159.63
672.91	18515.98
673.05	17731.90
673.19	18068.94
673.33	18621.30
673.47	18656.41
673.61	17954.25
673.75	18003.40
673.89	17542.32
674.03	18394.27
674.17	19007.49
674.31	19955.41
674.45	19016.85
674.59	17455.72
674.73	17254.43
674.87	17715.51
675.01	18192.98
675.15	17383.16
675.29	16802.71
675.43	16940.80
675.56	17329.33
675.70	18291.29
675.84	17547.00
675.98	16980.59
676.12	18258.52
676.26	18384.91
676.40	17355.07
676.54	16737.17
676.68	17029.74
676.82	16514.82
676.96	17624.23
677.10	17741.26
677.23	17364.43
677.37	17345.71
677.51	16725.47
677.65	16411.84
677.79	15833.72
677.93	16592.06
678.07	16884.62
678.21	16910.37
678.34	15906.28
678.48	16009.26
678.62	15915.64
678.76	16166.08
678.90	17050.80
679.04	16620.14
679.18	16528.86
679.31	15208.80
679.45	15503.71
679.59	15625.42
679.73	15667.55
679.87	15836.06
680.00	15644.14
680.14	16121.61
680.28	16489.07
680.42	16182.46
680.56	15868.83
680.70	14869.42
680.83	14623.67
680.97	14125.13
681.11	14530.05
681.25	14867.08
681.39	14855.38
681.52	14288.97
681.66	14497.28
681.80	14848.36
681.94	15073.05
682.07	14462.17
682.21	15367.96
682.35	15545.84
682.49	14661.12
682.62	14745.38
682.76	13619.58
682.90	14628.35
683.04	15164.33
683.17	14654.09
683.31	14298.33
683.45	14281.95
683.59	13816.18
683.72	13893.42
683.86	13710.86
684.00	13888.74
684.13	13476.80
684.27	14136.84
684.41	13427.65
684.55	13867.67
684.68	14122.79
684.82	13902.78
684.96	13935.55
685.09	13874.70
685.23	13769.37
685.37	14094.71
685.50	13310.63
685.64	12496.12
685.78	12758.26
685.91	13542.34
686.05	14169.60
686.19	12823.80
686.32	11564.59
686.46	10267.93
686.60	9224.05
686.73	8451.67
686.87	7906.33
687.01	7777.60
687.14	7918.03
687.28	8592.11
687.42	9245.12
687.55	9413.63
687.69	9811.53
687.82	10340.49
687.96	10237.50
688.10	9804.50
688.23	9989.41
688.37	10031.54
688.50	9563.43
688.64	9336.40
688.78	9128.09
688.91	9816.21
689.05	9659.39
689.18	9509.60
689.32	9907.49
689.46	9322.35
689.59	9572.79
689.73	10099.41
689.86	9806.84
690.00	9638.33
690.13	9626.62
690.27	9448.74
690.41	9364.48
690.54	9366.82
690.68	9528.32
690.81	9827.91
690.95	10366.23
691.08	10399.00
691.22	9921.53
691.35	9928.55
691.49	10134.52
691.62	9734.29
691.76	9900.47
691.89	9909.83
692.03	10054.94
692.16	10125.16
692.30	9930.89
692.43	9621.94
692.57	9357.46
692.70	9586.83
692.84	9760.03
692.97	10061.96
693.11	9902.81
693.24	9378.53
693.38	9350.44
693.51	9462.79
693.65	9032.13
693.78	8791.05
693.92	8524.23
694.05	8528.91
694.19	8617.85
694.32	9149.15
694.45	9137.45
694.59	8842.54
694.72	9001.70
694.86	8959.57
694.99	9027.45
695.13	9345.76
695.26	8929.14
695.39	8610.83
695.53	8971.27
695.66	8828.50
695.80	8945.53
695.93	8915.10
696.07	9109.36
696.20	9252.14
696.33	9039.15
696.47	8896.38
696.60	9167.88
696.73	9586.83
696.87	8552.32
697.00	8458.70
697.14	8262.09
697.27	7906.33
697.40	7960.16
697.54	8299.54
697.67	8241.03
697.80	8229.32
697.94	8306.56
698.07	7822.07
698.21	8140.38
698.34	8271.45
698.47	7826.75
698.61	7527.16
698.74	7613.76
698.87	7644.19
699.01	7000.54
699.14	7281.41
699.27	7581.00
699.40	7822.07
699.54	7581.00
699.67	7442.90
699.80	7456.95
699.94	7365.67
700.07	6930.33
700.20	7047.35
700.34	7000.54
700.47	6661.16
700.60	6745.42
700.73	6499.67
700.87	6576.91
701.00	6970.12
701.13	7108.21
701.26	6787.55
701.40	6661.16
701.53	6923.30
701.66	7321.20
701.79	7286.09
701.93	6743.08
702.06	6562.86
702.19	6436.47
702.32	6775.85
702.46	7005.22
702.59	7016.93
702.72	7314.17
702.85	7101.19
702.99	7103.53
703.12	7400.77
703.25	7260.34
703.38	7138.63
703.51	6899.90
703.65	7405.46
703.78	7007.56
703.91	7061.40
704.04	6892.88
704.17	6677.55
704.31	6654.14
704.44	6757.13
704.57	6207.10
704.70	5809.21
704.83	5858.36
704.96	5907.51
705.10	5795.17
705.23	5933.26
>>>>>End Processed Spectral Data<<<<<
