SpectraSuite Data File
++++++++++++++++++++++++++++++++++++
Date: Mon Oct 07 14:53:08 GMT-05:00 2013
User: price-jones
Dark Spectrum Present: No
Reference Spectrum Present: No
Number of Sampled Component Spectra: 1
Spectrometers: USB2+H05261
Integration Time (usec): 100000 (USB2+H05261)
Spectra Averaged: 1 (USB2+H05261)
Boxcar Smoothing: 0 (USB2+H05261)
Correct for Electrical Dark: No (USB2+H05261)
Strobe/Lamp Enabled: No (USB2+H05261)
Correct for Detector Non-linearity: No (USB2+H05261)
Correct for Stray Light: No (USB2+H05261)
Number of Pixels in Processed Spectrum: 2048
>>>>>Begin Processed Spectral Data<<<<<
365.73	0.00
365.92	0.00
366.12	0.00
366.32	0.00
366.52	0.00
366.72	0.00
366.91	0.00
367.11	0.00
367.31	0.00
367.51	0.00
367.70	0.00
367.90	0.00
368.10	0.00
368.30	0.00
368.49	0.00
368.69	0.00
368.89	0.00
369.09	0.00
369.28	0.00
369.48	0.00
369.68	0.00
369.87	0.00
370.07	0.00
370.27	0.00
370.47	690.46
370.66	3358.67
370.86	3789.33
371.06	4114.66
371.25	4030.40
371.45	3740.18
371.65	3309.52
371.84	3253.34
372.04	3321.22
372.24	3543.57
372.44	3810.39
372.63	3740.18
372.83	3716.77
373.03	3211.22
373.22	2881.20
373.42	3016.95
373.62	3599.74
373.81	3742.52
374.01	3735.50
374.21	3506.12
374.40	3133.98
374.60	3225.26
374.79	3747.20
374.99	4241.05
375.19	4823.84
375.38	4505.53
375.58	4386.16
375.78	4322.97
375.97	4376.80
376.17	4538.30
376.37	4660.01
376.56	4732.56
376.76	4912.78
376.95	5322.38
377.15	5717.93
377.35	5877.09
377.54	5947.30
377.74	6129.86
377.93	6167.31
378.13	6104.12
378.33	5935.60
378.52	5146.84
378.72	5013.43
378.91	4929.17
379.11	4975.98
379.31	4535.96
379.50	4692.77
379.70	5001.72
379.89	5645.37
380.09	5891.13
380.28	6270.30
380.48	6090.07
380.68	6174.33
380.87	5919.21
381.07	5418.34
381.26	4983.00
381.46	4713.84
381.65	4519.57
381.85	4372.12
382.04	4184.88
382.24	3819.75
382.43	3880.61
382.63	3620.81
382.83	3515.48
383.02	3721.45
383.22	3740.18
383.41	3655.92
383.61	4138.07
383.80	4606.17
384.00	5203.01
384.19	5774.10
384.39	5975.39
384.58	6043.26
384.78	6019.86
384.97	5738.99
385.17	5628.99
385.36	5261.52
385.56	5128.11
385.75	5322.38
385.95	5792.83
386.14	6221.14
386.34	6228.17
386.53	6115.82
386.72	5493.24
386.92	5518.98
387.11	5949.64
387.31	6174.33
387.50	6136.88
387.70	5867.72
387.89	5940.28
388.09	6022.20
388.28	5825.59
388.48	6087.73
388.67	6438.81
388.86	7117.57
389.06	7655.89
389.25	8126.34
389.45	8161.45
389.64	7953.14
389.84	7784.62
390.03	7808.03
390.22	7892.29
390.42	8217.62
390.61	8821.48
390.81	9345.76
391.00	9242.78
391.19	9256.82
391.39	8905.74
391.58	8512.53
391.78	7810.37
391.97	7934.42
392.16	7080.12
392.36	6642.44
392.55	5280.25
392.75	4163.81
392.94	3375.05
393.13	3459.31
393.33	4056.15
393.52	5142.16
393.71	6527.75
393.91	7162.04
394.10	7892.29
394.29	8552.32
394.49	9224.05
394.68	9944.94
394.88	9893.44
395.07	10303.04
395.26	10204.74
395.46	9802.16
395.65	9364.48
395.84	8030.38
396.04	6958.41
396.23	5596.22
396.42	4716.18
396.62	4423.61
396.81	5317.70
397.00	6722.02
397.19	8533.59
397.39	10071.33
397.58	11143.29
397.77	11871.20
397.97	12280.79
398.16	12425.90
398.35	12889.33
398.55	13383.18
398.74	13717.88
398.93	14281.95
399.12	13743.63
399.32	13207.64
399.51	13895.76
399.70	14817.93
399.90	14249.18
400.09	14455.15
400.28	14237.48
400.47	14434.08
400.67	15187.74
400.86	15470.94
401.05	15293.06
401.24	15623.08
401.44	15807.98
401.63	15854.79
401.82	16023.31
402.01	15894.58
402.21	16224.59
402.40	16428.22
402.59	15887.56
402.78	14995.81
402.97	14960.70
403.17	15197.10
403.36	16161.40
403.55	16730.15
403.74	16943.14
403.93	16542.91
404.13	15208.80
404.32	14853.04
404.51	15253.27
404.70	16624.83
404.89	16975.91
405.09	16177.78
405.28	15777.55
405.47	15765.85
405.66	15969.48
405.85	15339.87
406.05	14815.59
406.24	15314.13
406.43	15800.96
406.62	16264.38
406.81	16617.80
407.00	15700.31
407.20	15534.14
407.39	15634.78
407.58	16526.52
407.77	17001.65
407.96	17561.04
408.15	17607.85
408.34	18001.06
408.54	18743.01
408.73	18815.57
408.92	18621.30
409.11	17951.91
409.30	17029.74
409.49	15873.51
409.68	15047.30
409.87	14553.45
410.07	15370.30
410.26	17008.67
410.45	17811.48
410.64	18420.02
410.83	18787.48
411.02	19241.54
411.21	20013.92
411.40	20086.48
411.59	19805.61
411.78	19868.81
411.98	19920.30
412.17	20201.16
412.36	19384.32
412.55	19520.07
412.74	19075.37
412.93	18820.25
413.12	19047.28
413.31	20636.50
413.50	20666.93
413.69	21064.82
413.88	20439.90
414.07	19756.46
414.26	20255.00
414.45	20835.45
414.64	20971.20
414.83	21312.92
415.02	20456.28
415.22	20250.32
415.41	21420.58
415.60	21774.00
415.79	22623.62
415.98	22780.43
416.17	23051.94
416.36	22040.82
416.55	22104.02
416.74	21380.79
416.93	20554.58
417.12	20613.10
417.31	20889.28
417.50	20978.22
417.69	22040.82
417.88	22045.51
418.07	21685.06
418.26	21539.95
418.45	21797.41
418.64	22415.31
418.83	23255.56
419.02	22906.82
419.21	22487.87
419.39	21738.90
419.58	20861.19
419.77	20678.63
419.96	21902.73
420.15	22941.93
420.34	23690.90
420.53	24411.79
420.72	24608.39
420.91	24381.36
421.10	24098.16
421.29	23995.17
421.48	23236.84
421.67	24615.41
421.86	23709.63
422.05	22059.55
422.24	19777.53
422.43	19843.06
422.61	21827.84
422.80	23740.05
422.99	23896.87
423.18	22761.71
423.37	22485.53
423.56	22558.08
423.75	22824.90
423.94	22988.74
424.13	21804.43
424.32	22024.44
424.50	22513.61
424.69	22054.87
424.88	21907.41
425.07	22012.74
425.26	22008.06
425.45	21511.86
425.64	21345.69
425.83	21504.84
426.01	22628.30
426.20	23030.87
426.39	23073.00
426.58	21350.37
426.77	19517.73
426.96	18923.23
427.15	19637.09
427.33	21579.74
427.52	22162.53
427.71	22314.67
427.90	22043.17
428.09	22127.42
428.28	21235.68
428.46	20919.71
428.65	20203.50
428.84	21165.46
429.03	21467.39
429.22	20196.48
429.40	19239.20
429.59	17364.43
429.78	15290.72
429.97	15662.86
430.16	15637.12
430.34	15557.54
430.53	15602.01
430.72	16084.16
430.91	17589.13
431.10	20996.95
431.28	24257.31
431.47	26302.94
431.66	26958.29
431.85	23803.25
432.03	22448.08
432.22	21509.52
432.41	22326.37
432.60	25027.35
432.79	25891.01
432.97	26036.12
433.16	25792.70
433.35	23225.14
433.54	20854.17
433.72	19723.69
433.91	20692.68
434.10	23204.07
434.28	24748.82
434.47	25692.06
434.66	25111.61
434.85	24783.93
435.03	24624.78
435.22	25268.42
435.41	26946.59
435.59	27000.42
435.78	27367.88
435.97	27941.32
436.16	28224.52
436.34	27527.04
436.53	27267.24
436.72	26995.74
436.90	25425.24
437.09	25605.46
437.28	25434.60
437.46	26216.34
437.65	26012.71
437.84	24231.57
438.02	22249.13
438.21	22059.55
438.40	23819.63
438.58	25453.33
438.77	26382.52
438.96	26471.46
439.14	27435.76
439.33	27730.67
439.52	28137.92
439.70	27749.39
439.89	27316.39
440.08	26284.22
440.26	26473.80
440.45	27571.51
440.63	29308.19
440.82	30871.67
441.01	30012.69
441.19	29940.13
441.38	30338.02
441.57	31798.52
441.75	31924.91
441.94	32414.08
442.12	31854.69
442.31	32547.49
442.50	32278.33
442.68	31999.80
442.87	31826.60
443.05	31255.51
443.24	31938.95
443.43	32397.70
443.61	32842.40
443.80	33284.76
443.98	31592.55
444.17	31363.18
444.35	32978.15
444.54	33741.16
444.73	33104.54
444.91	32053.64
445.10	30696.13
445.28	29589.05
445.47	28987.53
445.65	29549.26
445.84	30096.95
446.02	31131.47
446.21	31625.32
446.39	31421.69
446.58	32215.13
446.77	32622.39
446.95	32818.99
447.14	34106.29
447.32	34110.97
447.51	33373.70
447.69	32507.70
447.88	31950.65
448.06	32423.44
448.25	33202.84
448.43	33694.35
448.62	33071.77
448.80	32650.47
448.99	32617.71
449.17	33111.56
449.36	33177.09
449.54	34052.45
449.73	34995.69
449.91	35306.98
450.10	36224.47
450.28	36676.19
450.46	36343.84
450.65	36470.23
450.83	36194.04
451.02	35337.41
451.20	34993.35
451.39	35379.54
451.57	35072.93
451.76	34962.92
451.94	34726.53
452.13	34075.86
452.31	32758.14
452.49	31122.10
452.68	31597.23
452.86	31534.04
453.05	32051.30
453.23	33046.02
453.42	33790.31
453.60	34904.41
453.78	34761.64
453.97	34745.25
454.15	34546.31
454.34	33825.42
454.52	33855.85
454.70	33345.61
454.89	33762.23
455.07	33532.86
455.26	34480.77
455.44	35562.10
455.62	36170.64
455.81	36531.08
455.99	36065.31
456.17	35501.25
456.36	35814.88
456.54	36624.70
456.73	36701.94
456.91	37696.67
457.09	37979.87
457.28	38560.33
457.46	36613.00
457.64	36540.44
457.83	35534.01
458.01	35079.95
458.19	35526.99
458.38	35831.26
458.56	37085.79
458.74	36992.17
458.93	36156.60
459.11	36308.73
459.29	36006.80
459.48	36137.87
459.66	35955.31
459.84	36790.88
460.03	36617.68
460.21	36769.82
460.39	37677.94
460.57	37488.36
460.76	38040.73
460.94	38440.96
461.12	37876.89
461.31	37954.13
461.49	37804.33
461.67	37956.47
461.85	39171.21
462.04	38766.29
462.22	39356.11
462.40	38873.96
462.59	38855.23
462.77	38532.24
462.95	38944.17
463.13	38005.62
463.32	37956.47
463.50	37715.39
463.68	38295.85
463.86	37729.44
464.05	37383.04
464.23	36552.15
464.41	36622.36
464.59	35819.56
464.78	37954.13
464.96	37193.45
465.14	37024.93
465.32	37738.80
465.50	38768.63
465.69	39246.10
465.87	38342.66
466.05	37322.18
466.23	35857.01
466.41	34707.80
466.60	36072.34
466.78	36416.40
466.96	36748.75
467.14	37493.04
467.32	37909.66
467.51	37663.90
467.69	36194.04
467.87	37364.31
468.05	37518.79
468.23	37558.58
468.41	37347.93
468.60	37888.59
468.78	37963.49
468.96	37752.84
469.14	38167.12
469.32	38534.58
469.50	37141.96
469.69	36945.36
469.87	36114.47
470.05	36531.08
470.23	36744.07
470.41	36470.23
470.59	37064.72
470.77	37331.54
470.95	37652.20
471.14	38497.13
471.32	38637.56
471.50	40500.63
471.68	40711.28
471.86	41017.89
472.04	41045.97
472.22	41158.32
472.40	39454.41
472.58	38937.15
472.77	38714.80
472.95	39723.57
473.13	40266.58
473.31	39154.82
473.49	39461.43
473.67	40133.17
473.85	40659.79
474.03	41881.55
474.21	41434.50
474.39	41942.40
474.57	42108.58
474.75	41942.40
474.93	42068.79
475.12	40797.88
475.30	40568.51
475.48	41141.94
475.66	41794.95
475.84	41572.60
476.02	41181.73
476.20	40552.12
476.38	41165.34
476.56	42646.90
476.74	43100.97
476.92	43077.56
477.10	43784.40
477.28	44697.21
477.46	44708.91
477.64	45378.31
477.82	45132.55
478.00	45883.86
478.18	44332.09
478.36	45013.18
478.54	44999.14
478.72	45584.27
478.90	46827.10
479.08	47281.16
479.26	47491.81
479.44	47606.50
479.62	47407.55
479.80	47381.80
479.98	47529.26
480.16	47840.55
480.34	47540.96
480.52	47583.09
480.70	47597.13
480.88	48069.92
481.06	48823.58
481.24	48931.24
481.41	49867.45
481.59	50373.01
481.77	49986.82
481.95	49364.24
482.13	49837.03
482.31	49350.20
482.49	50330.88
482.67	50136.62
482.85	50122.57
483.03	50829.41
483.21	51374.76
483.39	50763.88
483.57	50511.10
483.74	50284.07
483.92	50370.67
484.10	50593.02
484.28	51714.14
484.46	51669.67
484.64	52191.61
484.82	51393.48
485.00	50724.09
485.18	50178.75
485.35	48849.32
485.53	45645.13
485.71	42115.60
485.89	42146.03
486.07	44109.74
486.25	47356.06
486.43	49366.58
486.61	50218.53
486.78	49822.98
486.96	50361.31
487.14	51819.46
487.32	52423.32
487.50	53357.19
487.68	54211.49
487.85	54625.76
488.03	54319.15
488.21	53825.30
488.39	53364.21
488.57	52790.78
488.75	52669.08
488.92	53820.62
489.10	55798.37
489.28	56671.39
489.46	57200.35
489.64	57001.41
489.81	56921.83
489.99	56795.44
490.17	56882.04
490.35	57120.77
490.53	56802.46
490.70	56474.79
490.88	56425.64
491.06	57080.98
491.24	57205.03
491.41	56266.48
491.59	55028.34
491.77	54387.03
491.95	55222.60
492.13	56261.80
492.30	57378.23
492.48	58148.27
492.66	58515.73
492.84	58377.64
493.01	58258.27
493.19	57811.23
493.37	57385.25
493.54	57249.50
493.72	57942.30
493.90	58780.21
494.08	59234.28
494.25	59718.77
494.43	59756.22
494.61	60104.96
494.79	60289.86
494.96	59870.90
495.14	59461.31
495.32	58401.05
495.49	58028.90
495.67	59175.76
495.85	60079.21
496.02	60619.88
496.20	60343.69
496.38	59941.12
496.55	60004.31
496.73	60301.56
496.91	60355.39
497.09	61139.47
497.26	61193.31
497.44	60683.07
497.62	60427.95
497.79	59227.26
497.97	58445.52
498.14	58670.21
498.32	59571.32
498.50	60423.27
498.67	60809.46
498.85	60645.62
499.03	60952.23
499.20	61155.86
499.38	61188.63
499.56	61092.66
499.73	60472.42
499.91	59978.57
500.08	59744.51
500.26	59334.92
500.44	59716.43
500.61	60308.58
500.79	60023.04
500.97	59767.92
501.14	59664.94
501.32	59477.69
501.49	59526.84
501.67	59667.28
501.84	60156.45
502.02	60470.08
502.20	60683.07
502.37	60706.47
502.55	60786.05
502.72	61338.42
502.90	61820.57
503.07	61504.60
503.25	61113.73
503.43	60378.80
503.60	59662.60
503.78	59309.18
503.95	59629.83
504.13	60947.55
504.30	61549.07
504.48	61312.67
504.65	61029.47
504.83	61172.24
505.01	61738.65
505.18	62007.81
505.36	62321.44
505.53	62363.57
505.71	62756.78
505.88	62925.30
506.06	62248.89
506.23	61907.17
506.41	61600.56
506.58	62101.43
506.76	61736.31
506.93	61804.19
507.11	61656.73
507.28	61853.34
507.46	61319.70
507.63	60853.93
507.81	60676.05
507.98	60907.76
508.16	61595.88
508.33	61729.29
508.50	62276.97
508.68	62583.58
508.85	63000.20
509.03	62913.60
509.20	62939.35
509.38	62246.55
509.55	61490.55
509.73	61471.83
509.90	62038.24
510.08	62368.26
510.25	62183.35
510.42	62028.88
510.60	62096.75
510.77	62279.31
510.95	62810.62
511.12	62831.68
511.30	63250.64
511.47	63419.16
511.64	63491.71
511.82	63058.71
511.99	62302.72
512.17	61921.21
512.34	61731.63
512.51	61689.50
512.69	61806.53
512.86	62073.35
513.04	62365.91
513.21	62454.86
513.38	62063.99
513.56	61666.09
513.73	61109.05
513.90	61467.15
514.08	61415.66
514.25	61659.07
514.43	61740.99
514.60	61937.60
514.77	62040.58
514.95	62220.80
515.12	62101.43
515.29	62244.21
515.47	62590.61
515.64	62695.93
515.81	62611.67
515.99	61939.94
516.16	60671.37
516.33	58740.42
516.51	57708.25
516.68	56631.60
516.85	56488.83
517.03	57038.86
517.20	59117.25
517.37	61312.67
517.54	62241.87
517.72	61619.28
517.89	59442.59
518.06	57577.18
518.24	57818.25
518.41	59952.82
518.58	60856.27
518.75	61024.79
518.93	61111.39
519.10	61200.33
519.27	61616.94
519.45	61778.44
519.62	62211.44
519.79	62494.64
519.96	62756.78
520.14	62152.93
520.31	61338.42
520.48	61350.12
520.65	61654.39
520.83	62562.52
521.00	62976.79
521.17	62614.01
521.34	62202.08
521.52	62611.67
521.69	63178.08
521.86	63278.72
522.03	62831.68
522.20	61801.85
522.38	61059.90
522.55	61307.99
522.72	61694.18
522.89	61668.44
523.07	61799.50
523.24	62305.06
523.41	63241.28
523.58	63243.62
523.75	63650.87
523.92	63568.95
524.10	63627.46
524.27	63526.82
524.44	63248.30
524.61	63215.53
524.78	63145.31
524.96	62866.79
525.13	62883.17
525.30	63285.75
525.47	63575.97
525.64	63526.82
525.81	62735.72
525.98	61680.14
526.16	60203.26
526.33	59826.43
526.50	59519.82
526.67	59056.40
526.84	59772.60
527.01	60774.35
527.18	61329.06
527.36	62162.29
527.53	62834.02
527.70	63135.95
527.87	62635.08
528.04	62298.04
528.21	62766.15
528.38	63058.71
528.55	63749.17
528.72	64020.67
528.89	64076.85
529.07	63681.30
529.24	63128.93
529.41	62557.84
529.58	62166.97
529.75	62276.97
529.92	62686.57
530.09	63084.46
530.26	63622.78
530.43	63833.43
530.60	63828.75
530.77	63917.69
530.94	64182.17
531.11	63728.11
531.28	63299.79
531.46	63175.74
531.63	63313.83
531.80	63098.50
531.97	62738.06
532.14	62171.65
532.31	61020.11
532.48	60624.56
532.65	60863.29
532.82	61656.73
532.99	62450.17
533.16	62803.59
533.33	63470.65
533.50	63252.98
533.67	62454.86
533.84	62188.03
534.01	62298.04
534.18	62618.69
534.35	62700.61
534.52	62557.84
534.69	62960.41
534.86	63061.05
535.03	63482.35
535.20	63866.20
535.37	64053.44
535.54	64163.45
535.71	63840.45
535.88	63405.11
536.05	62906.58
536.22	62494.64
536.38	62241.87
536.55	61815.89
536.72	61530.34
536.89	61343.10
537.06	62209.10
537.23	63140.63
537.40	63096.16
537.57	63070.42
537.74	62873.81
537.91	62735.72
538.08	62805.94
538.25	62993.18
538.42	63025.95
538.59	62784.87
538.75	62298.04
538.92	62169.31
539.09	62181.01
539.26	61825.25
539.43	61785.46
539.60	61879.08
539.77	62061.64
539.94	61820.57
540.11	61069.26
540.28	60727.54
540.44	60760.31
540.61	60980.32
540.78	61160.54
540.95	61677.80
541.12	62078.03
541.29	62127.18
541.46	62464.22
541.62	62595.29
541.79	62377.62
541.96	61776.10
542.13	61750.35
542.30	62106.12
542.47	62239.53
542.63	61953.98
542.80	61893.13
542.97	61937.60
543.14	61843.98
543.31	61975.05
543.48	62391.66
543.64	63004.88
543.81	63231.91
543.98	63018.92
544.15	62504.01
544.32	61867.38
544.48	62152.93
544.65	62501.67
544.82	62735.72
544.99	62307.40
545.16	61998.45
545.32	62066.33
545.49	62698.27
545.66	62939.35
545.83	62698.27
546.00	62323.78
546.16	61895.47
546.33	62071.01
546.50	62080.37
546.67	62639.76
546.83	62131.86
547.00	62284.00
547.17	61593.54
547.34	61041.17
547.50	61071.60
547.67	61439.06
547.84	61439.06
548.00	61907.17
548.17	62312.08
548.34	62211.44
548.51	62178.67
548.67	62162.29
548.84	62192.72
549.01	62211.44
549.18	62066.33
549.34	62159.95
549.51	62073.35
549.68	62021.86
549.84	61701.20
550.01	61661.41
550.18	61572.47
550.34	61654.39
550.51	61755.03
550.68	61792.48
550.84	61392.25
551.01	61474.17
551.18	61235.44
551.34	61600.56
551.51	61858.02
551.68	62237.19
551.84	62195.06
552.01	62007.81
552.18	61787.80
552.34	61095.00
552.51	60933.51
552.68	60750.94
552.84	61415.66
553.01	61528.00
553.18	61275.22
553.34	61647.37
553.51	61530.34
553.67	61799.50
553.84	61953.98
554.01	61792.48
554.17	61539.71
554.34	61860.36
554.51	61846.32
554.67	62291.02
554.84	61881.42
555.00	61811.21
555.17	61483.53
555.33	61668.44
555.50	61446.08
555.67	61584.18
555.83	61354.80
556.00	61057.56
556.16	60987.34
556.33	60860.95
556.50	60603.49
556.66	60823.50
556.83	60441.99
556.99	60638.60
557.16	60552.00
557.32	60823.50
557.49	61137.13
557.65	60893.72
557.82	60977.98
557.98	60692.43
558.15	60654.98
558.32	59660.26
558.48	59143.00
558.65	59182.79
558.81	59657.91
558.98	59796.01
559.14	60147.09
559.31	60205.60
559.47	60032.40
559.64	59854.52
559.80	59753.88
559.97	59360.67
560.13	59955.16
560.30	60734.56
560.46	61183.94
560.63	61401.61
560.79	61368.85
560.96	61242.46
561.12	60104.96
561.29	59166.40
561.45	59496.42
561.61	59800.69
561.78	60486.46
561.94	60219.64
562.11	60032.40
562.27	59842.82
562.44	60233.69
562.60	60645.62
562.77	60470.08
562.93	60671.37
563.10	60514.55
563.26	59812.39
563.42	60121.34
563.59	59882.61
563.75	59760.90
563.92	59950.48
564.08	59920.05
564.24	60252.41
564.41	60018.36
564.57	59978.57
564.74	59866.22
564.90	59805.37
565.07	59501.10
565.23	59456.63
565.39	58820.00
565.56	58564.88
565.72	58337.85
565.88	58812.98
566.05	58986.18
566.21	59166.40
566.38	59138.32
566.54	59206.19
566.70	59819.41
566.87	60065.17
567.03	59814.73
567.19	60020.70
567.36	59615.79
567.52	59583.02
567.68	59454.29
567.85	58815.32
568.01	58408.07
568.17	58171.67
568.34	58265.30
568.50	58321.47
568.66	58255.93
568.83	58740.42
568.99	58749.79
569.15	58901.92
569.32	58864.47
569.48	58637.44
569.64	58508.71
569.81	58347.21
569.97	58162.31
570.13	58082.73
570.30	57652.08
570.46	57481.22
570.62	56919.49
570.78	56797.78
570.95	57270.57
571.11	57851.02
571.27	58028.90
571.43	57935.28
571.60	58260.62
571.76	58377.64
571.92	58599.99
572.09	58857.45
572.25	58693.61
572.41	58873.84
572.57	58628.08
572.74	58618.72
572.90	58220.83
573.06	58049.97
573.22	58209.12
573.38	58246.57
573.55	58134.23
573.71	58663.19
573.87	58632.76
574.03	58174.02
574.20	58351.90
574.36	57778.46
574.52	57949.32
574.68	57270.57
574.84	57139.50
575.01	57080.98
575.17	57118.43
575.33	57251.84
575.49	57502.28
575.65	57483.56
575.82	57322.06
575.98	57165.24
576.14	57551.43
576.30	57511.64
576.46	57476.54
576.62	57595.90
576.79	57579.52
576.95	57361.85
577.11	57469.51
577.27	57551.43
577.43	57373.55
577.59	57043.54
577.75	56591.81
577.92	56081.58
578.08	56046.47
578.24	55901.36
578.40	56427.98
578.56	56638.62
578.72	56610.54
578.88	56863.32
579.04	56994.39
579.21	57120.77
579.37	57069.28
579.53	57102.05
579.69	57237.80
579.85	57265.89
580.01	56987.36
580.17	56507.55
580.33	56481.81
580.49	56570.75
580.65	57038.86
580.82	57125.46
580.98	57127.80
581.14	56825.87
581.30	56921.83
581.46	57027.15
581.62	56959.28
581.78	57078.64
581.94	57205.03
582.10	57125.46
582.26	57471.85
582.42	57200.35
582.58	57371.21
582.74	57237.80
582.90	57073.96
583.06	57265.89
583.22	57017.79
583.38	56968.64
583.54	57165.24
583.70	56734.59
583.86	56910.13
584.02	56549.68
584.18	56865.66
584.34	56877.36
584.50	56786.08
584.66	56491.17
584.82	56339.04
584.98	56186.90
585.14	55870.93
585.30	55297.50
585.46	55175.79
585.62	54930.03
585.78	55316.22
585.94	55515.17
586.10	55803.05
586.26	55796.03
586.42	55899.01
586.58	56189.24
586.74	56472.45
586.90	56013.70
587.06	55833.48
587.22	56034.77
587.38	55679.00
587.54	55320.90
587.70	55309.20
587.86	55166.43
588.02	54719.38
588.18	54822.37
588.34	53855.73
588.49	51927.13
588.65	50295.77
588.81	50080.44
588.97	50473.65
589.13	50073.42
589.29	50042.99
589.45	50834.10
589.61	51877.97
589.77	52800.15
589.93	53652.10
590.08	54426.82
590.24	54492.35
590.40	54581.29
590.56	54805.98
590.72	54099.14
590.88	54021.90
591.04	53820.62
591.20	53670.82
591.35	53715.29
591.51	53832.32
591.67	53762.11
591.83	54007.86
591.99	53581.88
592.15	54262.98
592.31	54319.15
592.46	54239.57
592.62	53609.97
592.78	53563.16
592.94	53743.38
593.10	53886.15
593.26	53942.33
593.41	54270.00
593.57	53970.41
593.73	53638.06
593.89	53254.21
594.05	53408.68
594.20	52942.92
594.36	52542.69
594.52	52610.56
594.68	52736.95
594.84	52971.00
594.99	53160.59
595.15	53188.67
595.31	53532.73
595.47	53408.68
595.62	53675.51
595.78	53506.99
595.94	53844.02
596.10	53640.40
596.25	53137.18
596.41	53265.91
596.57	52673.76
596.73	53284.64
596.88	53195.70
597.04	53389.96
597.20	53123.14
597.36	52505.24
597.51	53045.90
597.67	52882.06
597.83	52629.29
597.99	52713.55
598.14	52203.31
598.30	52278.21
598.46	52645.67
598.61	52765.04
598.77	52320.34
598.93	52626.95
599.09	52896.11
599.24	53069.31
599.40	52657.37
599.56	53008.45
599.71	52765.04
599.87	52636.31
600.03	52624.60
600.18	52395.23
600.34	52163.52
600.50	51903.72
600.65	51875.63
600.81	52081.60
600.97	52257.14
601.12	51856.91
601.28	51856.91
601.44	51737.54
601.59	51267.09
601.75	51409.87
601.91	51379.44
602.06	51192.20
602.22	51517.53
602.37	51253.05
602.53	51842.87
602.69	52182.24
602.84	52079.26
603.00	52233.74
603.16	52533.32
603.31	52320.34
603.47	52566.09
603.62	52149.48
603.78	51896.70
603.94	52107.35
604.09	52210.33
604.25	51964.57
604.40	51922.44
604.56	52053.51
604.71	52109.69
604.87	51896.70
605.03	51842.87
605.18	51442.63
605.34	51592.43
605.49	51330.29
605.65	51597.11
605.80	51540.94
605.96	51353.69
606.12	50894.95
606.27	50831.75
606.43	51341.99
606.58	51267.09
606.74	51021.34
606.89	51601.79
607.05	51611.15
607.20	51189.86
607.36	50932.40
607.51	50658.56
607.67	50384.71
607.82	50644.51
607.98	50337.90
608.13	50241.94
608.29	50178.75
608.44	50211.51
608.60	50230.24
608.75	50005.55
608.91	50164.70
609.06	50265.34
609.22	50445.57
609.37	50071.08
609.53	50263.00
609.68	49567.87
609.84	49029.54
609.99	48734.63
610.15	49034.22
610.30	49097.42
610.46	49336.15
610.61	49474.24
610.76	49680.21
610.92	50171.72
611.07	50316.84
611.23	50370.67
611.38	50136.62
611.54	49738.72
611.69	49202.74
611.84	48800.17
612.00	48287.59
612.15	48369.51
612.31	48580.16
612.46	48477.18
612.62	48729.95
612.77	48926.56
612.92	49317.43
613.08	48156.52
613.23	47498.83
613.39	47297.55
613.54	46829.44
613.69	47243.71
613.85	47103.28
614.00	47810.12
614.15	47957.58
614.31	47920.13
614.46	48130.78
614.62	48151.84
614.77	48257.17
614.92	48238.44
615.08	47765.65
615.23	47938.85
615.38	47742.25
615.54	46892.63
615.69	46106.21
615.84	45162.98
616.00	44921.90
616.15	45771.52
616.30	45815.99
616.46	45584.27
616.61	45886.20
616.76	45375.97
616.92	46108.55
617.07	46433.89
617.22	46515.81
617.37	46160.05
617.53	46925.40
617.68	47075.19
617.83	47065.83
617.99	46920.72
618.14	47093.92
618.29	46684.33
618.45	46263.03
618.60	46178.77
618.75	45312.77
618.90	45415.76
619.06	46066.42
619.21	46232.60
619.36	46703.05
619.51	46525.17
619.67	46160.05
619.82	46351.97
619.97	46569.64
620.12	46490.06
620.28	46054.72
620.43	46307.50
620.58	46724.11
620.73	45841.73
620.89	45680.24
621.04	45654.49
621.19	44975.73
621.34	44610.61
621.49	44493.58
621.65	44851.69
621.80	44982.76
621.95	44825.94
622.10	45153.62
622.25	44818.92
622.41	44568.48
622.56	44540.39
622.71	43908.45
622.86	43732.91
623.01	44116.76
623.16	43852.28
623.32	43992.71
623.47	43697.80
623.62	44163.57
623.77	43187.56
623.92	43555.03
624.07	42616.47
624.23	42321.57
624.38	42183.48
624.53	42836.48
624.68	42710.10
624.83	42480.72
624.98	42146.03
625.13	41769.20
625.29	41855.80
625.44	42241.99
625.59	42328.59
625.74	42323.91
625.89	42607.11
626.04	42506.47
626.19	42398.80
626.34	42639.88
626.49	42234.97
626.65	41755.16
626.80	42155.39
626.95	41687.28
627.10	42031.34
627.25	41006.19
627.40	39571.44
627.55	39154.82
627.70	38902.04
627.85	39044.82
628.00	39548.03
628.15	40690.21
628.30	40369.56
628.45	41158.32
628.60	40229.13
628.76	40938.31
628.91	40669.15
629.06	40250.19
629.21	39868.69
629.36	39758.68
629.51	39587.82
629.66	39271.85
629.81	38871.62
629.96	39199.29
630.11	39810.17
630.26	39929.54
630.41	39922.52
630.56	39849.96
630.71	40224.45
630.86	39831.24
631.01	39199.29
631.16	39264.83
631.31	38541.60
631.46	38249.03
631.61	38543.94
631.76	38871.62
631.91	39342.06
632.06	39573.78
632.21	39697.83
632.36	39702.51
632.51	39723.57
632.66	40058.27
632.81	39510.58
632.96	39693.15
633.10	39000.35
633.25	38892.68
633.40	38553.30
633.55	39164.18
633.70	38995.67
633.85	38738.21
634.00	39037.80
634.15	38670.33
634.30	38911.41
634.45	38511.17
634.60	39351.43
634.75	39014.39
634.90	38909.07
635.05	38937.15
635.19	38525.22
635.34	38775.66
635.49	38120.31
635.64	38085.20
635.79	38092.22
635.94	37937.74
636.09	38082.86
636.24	38220.95
636.39	38038.39
636.53	38382.45
636.68	38555.64
636.83	38586.07
636.98	38895.02
637.13	38749.91
637.28	38801.40
637.43	38330.95
637.57	38492.45
637.72	38281.80
637.87	37848.80
638.02	37806.67
638.17	37804.33
638.32	37539.85
638.46	37837.10
638.61	37893.27
638.76	37722.41
638.91	37233.24
639.06	36943.02
639.20	37081.11
639.35	37081.11
639.50	36666.83
639.65	36437.46
639.80	36250.22
639.94	36694.92
640.09	36519.38
640.24	36861.10
640.39	36315.75
640.54	35929.56
640.68	36034.89
640.83	35498.91
640.98	35861.69
641.13	35859.35
641.27	36187.02
641.42	35655.72
641.57	35559.76
641.72	35758.70
641.86	35534.01
642.01	35667.42
642.16	35950.63
642.31	35964.67
642.45	36512.36
642.60	36208.09
642.75	35583.16
642.90	35321.02
643.04	35452.09
643.19	35604.23
643.34	35344.43
643.48	35159.53
643.63	35002.71
643.78	35140.80
643.93	35791.47
644.07	35702.53
644.22	35716.58
644.37	35332.73
644.51	35325.71
644.66	35065.91
644.81	34986.33
644.95	34047.77
645.10	34799.08
645.25	34192.89
645.39	34548.65
645.54	34398.85
645.69	34176.50
645.83	33668.61
645.98	33493.07
646.13	33661.58
646.27	33434.55
646.42	33436.89
646.57	33172.41
646.71	33441.57
646.86	33186.46
647.00	33244.97
647.15	33174.75
647.30	33202.84
647.44	32374.29
647.59	32444.51
647.74	32669.20
647.88	32037.25
648.03	32128.53
648.17	32446.85
648.32	32952.40
648.47	33043.68
648.61	32760.48
648.76	32566.21
648.90	31618.30
649.05	30766.34
649.20	30408.24
649.34	30459.73
649.49	30359.09
649.63	30813.15
649.78	31360.84
649.92	31889.80
650.07	32404.72
650.21	32877.51
650.36	32706.65
650.51	33081.13
650.65	32865.80
650.80	32802.61
650.94	32357.91
651.09	31669.79
651.23	31285.94
651.38	30939.54
651.52	30689.10
651.67	31054.23
651.81	31564.46
651.96	32144.92
652.10	31782.13
652.25	31924.91
652.39	31721.28
652.54	31765.75
652.68	31885.12
652.83	31835.97
652.97	31419.35
653.12	32009.17
653.26	31559.78
653.41	31585.53
653.55	31814.90
653.70	31978.74
653.84	31632.34
653.99	30967.63
654.13	30604.84
654.27	30199.93
654.42	30555.69
654.56	30115.67
654.71	30387.18
654.85	29996.31
655.00	29628.84
655.14	28926.68
655.29	28978.17
655.43	28308.78
655.57	27271.92
655.72	25511.84
655.86	23587.92
656.01	22366.16
656.15	22700.86
656.30	23999.85
656.44	25528.22
656.58	26794.45
656.73	27501.29
656.87	28027.92
657.01	28233.88
657.16	28973.49
657.30	29319.89
657.45	29369.04
657.59	29956.52
657.73	29268.40
657.88	29493.09
658.02	29675.65
658.16	29310.53
658.31	29577.35
658.45	29039.03
658.60	29064.77
658.74	29104.56
658.88	28933.70
659.03	28409.42
659.17	28666.88
659.31	28643.48
659.46	28694.97
659.60	29109.24
659.74	29408.83
659.89	29111.58
660.03	29425.22
660.17	29352.66
660.32	29345.64
660.46	29757.57
660.60	29017.96
660.74	28882.21
660.89	28961.79
661.03	28613.05
661.17	29069.45
661.32	28254.95
661.46	28751.14
661.60	28870.51
661.74	28994.56
661.89	28662.20
662.03	28547.51
662.17	28814.34
662.31	28439.85
662.46	28748.80
662.60	28353.25
662.74	28451.55
662.88	27838.33
663.03	27477.89
663.17	27447.46
663.31	27548.11
663.45	27606.62
663.60	27445.12
663.74	27524.70
663.88	27721.30
664.02	27201.71
664.17	27611.30
664.31	27143.19
664.45	27250.86
664.59	27278.94
664.73	27983.44
664.88	27674.49
665.02	27077.66
665.16	26974.67
665.30	27068.30
665.44	26960.63
665.59	27082.34
665.73	27049.57
665.87	26267.83
666.01	26345.07
666.15	26178.89
666.29	26080.59
666.44	26473.80
666.58	26352.09
666.72	26202.30
666.86	26527.63
667.00	26354.43
667.14	26749.98
667.28	26096.97
667.43	26183.57
667.57	25750.57
667.71	25837.17
667.85	26005.69
667.99	25783.34
668.13	25867.60
668.27	26061.87
668.41	26398.90
668.56	25757.60
668.70	25839.51
668.84	25523.54
668.98	25727.17
669.12	25333.96
669.26	25322.26
669.40	25280.13
669.54	25280.13
669.68	25427.58
669.82	25226.29
669.96	24854.15
670.10	24926.71
670.25	24989.90
670.39	24596.69
670.53	24367.32
670.67	24383.70
670.81	24781.59
670.95	24437.53
671.09	23868.78
671.23	24175.39
671.37	23775.16
671.51	24034.96
671.65	23999.85
671.79	23964.75
671.93	23850.06
672.07	24367.32
672.21	24086.45
672.35	24044.32
672.49	24086.45
672.63	24269.01
672.77	23716.65
672.91	23754.10
673.05	23648.77
673.19	23681.54
673.33	23393.65
673.47	23637.07
673.61	23838.36
673.75	23321.10
673.89	23283.65
674.03	23496.64
674.17	23253.22
674.31	22876.40
674.45	23208.75
674.59	22890.44
674.73	22586.17
674.87	22515.95
675.01	22462.12
675.15	22679.79
675.29	22508.93
675.43	22483.19
675.56	22625.96
675.70	22497.23
675.84	22417.65
675.98	22024.44
676.12	22242.11
676.26	22471.48
676.40	22195.30
676.54	22059.55
676.68	22059.55
676.82	21556.33
676.96	21685.06
677.10	21664.00
677.23	21509.52
677.37	21198.23
677.51	21640.59
677.65	21132.70
677.79	21039.08
677.93	21238.02
678.07	21158.44
678.21	20795.66
678.34	20741.83
678.48	20741.83
678.62	20472.67
678.76	20599.05
678.90	20980.56
679.04	20678.63
679.18	20552.24
679.31	20259.68
679.45	20182.44
679.59	20020.94
679.73	20315.85
679.87	20226.91
680.00	19915.62
680.14	19969.45
680.28	19627.73
680.42	19653.48
680.56	19445.17
680.70	19253.25
680.83	19283.67
680.97	19103.45
681.11	19456.87
681.25	18941.96
681.39	19094.09
681.52	19421.77
681.66	19321.12
681.80	19295.38
681.94	19073.03
682.07	19180.69
682.21	19082.39
682.35	18558.11
682.49	18855.36
682.62	18700.88
682.76	18302.99
682.90	18120.43
683.04	18391.93
683.17	18169.58
683.31	18424.70
683.45	18111.07
683.59	17888.71
683.72	17523.59
683.86	17539.97
684.00	17411.25
684.13	17312.94
684.27	17413.59
684.41	17343.37
684.55	17326.99
684.68	17280.18
684.82	17296.56
684.96	17226.34
685.09	17055.48
685.23	17025.06
685.37	16512.48
685.50	16919.73
685.64	16725.47
685.78	16416.52
685.91	16528.86
686.05	16547.59
686.19	15772.87
686.32	14780.48
686.46	13334.03
686.60	11662.89
686.73	11007.54
686.87	10541.77
687.01	10036.22
687.14	10422.41
687.28	10633.05
687.42	11009.88
687.55	11812.68
687.69	12531.23
687.82	13177.22
687.96	13275.52
688.10	13198.28
688.23	13102.32
688.37	13158.49
688.50	12828.48
688.64	12465.69
688.78	12322.92
688.91	12390.80
689.05	12456.33
689.18	12180.15
689.32	12241.00
689.46	12765.28
689.59	12521.87
689.73	12601.44
689.86	12468.03
690.00	12365.05
690.13	12528.89
690.27	12608.47
690.41	12830.82
690.54	12505.48
690.68	12786.35
690.81	13195.94
690.95	12842.52
691.08	12957.21
691.22	12819.11
691.35	12828.48
691.49	12699.75
691.62	12908.05
691.76	12891.67
691.89	12912.74
692.03	12617.83
692.16	12573.36
692.30	12751.24
692.43	12418.88
692.57	12456.33
692.70	12224.62
692.84	11999.93
692.97	11854.81
693.11	11908.65
693.24	11995.25
693.38	11903.96
693.51	11906.31
693.65	11564.59
693.78	11550.54
693.92	11555.22
694.05	11360.96
694.19	11637.14
694.32	11690.98
694.45	11499.05
694.59	11358.62
694.72	11529.48
694.86	11353.94
694.99	11328.19
695.13	11332.87
695.26	11082.44
695.39	11171.38
695.53	11119.89
695.66	10967.75
695.80	10927.96
695.93	11260.32
696.07	11197.12
696.20	11321.17
696.33	11281.38
696.47	11538.84
696.60	11805.66
696.73	11634.80
696.87	11602.04
697.00	11585.65
697.14	11384.37
697.27	11328.19
697.40	10958.39
697.54	10794.55
697.67	10429.43
697.80	10281.97
697.94	10466.88
698.07	10532.41
698.21	10567.52
698.34	10293.68
698.47	10307.72
698.61	10022.17
698.74	9795.14
698.87	10106.43
699.01	9781.10
699.14	9930.89
699.27	10061.96
699.40	9919.19
699.54	10099.41
699.67	9879.40
699.80	9575.13
699.94	9951.96
700.07	9397.25
700.20	9231.07
700.34	9151.49
700.47	9273.20
700.60	9231.07
700.73	9446.40
700.87	9275.54
701.00	9130.43
701.13	9240.44
701.26	9015.74
701.40	8966.59
701.53	8849.57
701.66	8844.88
701.79	9060.21
701.93	9013.40
702.06	8805.10
702.19	8784.03
702.32	8830.84
702.46	8812.12
702.59	8655.30
702.72	8685.73
702.85	8645.94
702.99	8933.82
703.12	8968.93
703.25	8739.56
703.38	8594.45
703.51	8486.78
703.65	8451.67
703.78	8276.13
703.91	8468.06
704.04	8439.97
704.17	8416.57
704.31	8507.85
704.44	8358.05
704.57	8430.61
704.70	8437.63
704.83	8313.58
704.96	8187.19
705.10	8182.51
705.23	8091.23
>>>>>End Processed Spectral Data<<<<<
