SpectraSuite Data File
++++++++++++++++++++++++++++++++++++
Date: Mon Oct 07 14:54:59 GMT-05:00 2013
User: price-jones
Dark Spectrum Present: No
Reference Spectrum Present: No
Number of Sampled Component Spectra: 1
Spectrometers: USB2+H05261
Integration Time (usec): 10000 (USB2+H05261)
Spectra Averaged: 1 (USB2+H05261)
Boxcar Smoothing: 0 (USB2+H05261)
Correct for Electrical Dark: No (USB2+H05261)
Strobe/Lamp Enabled: No (USB2+H05261)
Correct for Detector Non-linearity: No (USB2+H05261)
Correct for Stray Light: No (USB2+H05261)
Number of Pixels in Processed Spectrum: 2048
>>>>>Begin Processed Spectral Data<<<<<
365.73	0.00
365.92	0.00
366.12	0.00
366.32	0.00
366.52	0.00
366.72	0.00
366.91	0.00
367.11	0.00
367.31	0.00
367.51	0.00
367.70	0.00
367.90	0.00
368.10	0.00
368.30	0.00
368.49	0.00
368.69	0.00
368.89	0.00
369.09	0.00
369.28	0.00
369.48	0.00
369.68	0.00
369.87	0.00
370.07	0.00
370.27	0.00
370.47	0.00
370.66	858.98
370.86	1088.35
371.06	1172.61
371.25	1071.97
371.45	910.47
371.65	884.72
371.84	898.77
372.04	947.92
372.24	1039.20
372.44	999.41
372.63	990.05
372.83	894.08
373.03	802.80
373.22	746.63
373.42	830.89
373.62	1074.31
373.81	1060.26
374.01	1095.37
374.21	884.72
374.40	866.00
374.60	940.90
374.79	1135.16
374.99	1181.97
375.19	1310.70
375.38	1355.17
375.58	1128.14
375.78	1284.95
375.97	1231.12
376.17	1287.29
376.37	1266.23
376.56	1371.55
376.76	1497.94
376.95	1434.75
377.15	1771.79
377.35	1764.76
377.54	1900.52
377.74	1846.68
377.93	1849.02
378.13	1640.72
378.33	1617.31
378.52	1437.09
378.72	1385.60
378.91	1406.66
379.11	1313.04
379.31	1362.19
379.50	1352.83
379.70	1502.62
379.89	1497.94
380.09	1715.61
380.28	1816.26
380.48	1741.36
380.68	1645.40
380.87	1682.85
381.07	1523.69
381.26	1385.60
381.46	1291.98
381.65	1315.38
381.85	1259.21
382.04	1055.58
382.24	1146.86
382.43	957.28
382.63	992.39
382.83	1090.69
383.02	931.53
383.22	889.40
383.41	1008.77
383.61	1071.97
383.80	1299.00
384.00	1500.28
384.19	1643.06
384.39	1795.19
384.58	1743.70
384.78	1746.04
384.97	1724.97
385.17	1528.37
385.36	1542.41
385.56	1406.66
385.75	1362.19
385.95	1607.95
386.14	1827.96
386.34	1739.02
386.53	1596.25
386.72	1556.46
386.92	1647.74
387.11	1748.38
387.31	1827.96
387.50	1640.72
387.70	1781.15
387.89	1732.00
388.09	1687.53
388.28	1636.03
388.48	1764.76
388.67	2015.20
388.86	2052.65
389.06	2286.70
389.25	2413.09
389.45	2420.11
389.64	2186.06
389.84	2296.07
390.03	2275.00
390.22	2277.34
390.42	2375.64
390.61	2621.40
390.81	2778.22
391.00	2750.13
391.19	2626.08
391.39	2450.54
391.58	2443.52
391.78	2272.66
391.97	2204.78
392.16	1963.71
392.36	1647.74
392.55	1362.19
392.75	1022.81
392.94	854.30
393.13	842.59
393.33	1191.33
393.52	1575.18
393.71	1851.36
393.91	2073.71
394.10	2284.36
394.29	2544.16
394.49	2719.70
394.68	2923.33
394.88	2862.48
395.07	2878.86
395.26	2970.14
395.46	2672.89
395.65	2537.14
395.84	2143.93
396.04	1877.11
396.23	1519.01
396.42	1160.91
396.62	1221.76
396.81	1537.73
397.00	2010.52
397.19	2537.14
397.39	3089.51
397.58	3222.92
397.77	3541.23
397.97	3503.78
398.16	3604.42
398.35	3676.98
398.55	3969.55
398.74	4021.04
398.93	4173.18
399.12	4126.36
399.32	4032.74
399.51	4107.64
399.70	4259.78
399.90	4152.11
400.09	4231.69
400.28	4266.80
400.47	4098.28
400.67	4351.06
400.86	4507.87
401.05	4470.42
401.24	4489.15
401.44	4564.04
401.63	4554.68
401.82	4638.94
402.01	4676.39
402.21	4706.82
402.40	4594.47
402.59	4407.23
402.78	4311.27
402.97	4329.99
403.17	4596.81
403.36	4603.83
403.55	4849.59
403.74	4762.99
403.93	4533.62
404.13	4409.57
404.32	4482.13
404.51	4667.03
404.70	4863.63
404.89	4835.55
405.09	4634.26
405.28	4755.97
405.47	4603.83
405.66	4437.66
405.85	4332.33
406.05	4269.14
406.24	4566.39
406.43	4671.71
406.62	4671.71
406.81	4812.14
407.00	4606.17
407.20	4451.70
407.39	4470.42
407.58	4781.71
407.77	4777.03
407.96	4933.85
408.15	5022.79
408.34	5172.58
408.54	5416.00
408.73	5397.28
408.92	5228.76
409.11	4968.96
409.30	4819.16
409.49	4407.23
409.68	4346.37
409.87	4098.28
410.07	4613.20
410.26	4896.40
410.45	5050.88
410.64	5186.63
410.83	5586.86
411.02	5671.12
411.21	5755.38
411.40	5497.92
411.59	5633.67
411.78	5668.78
411.98	5558.77
412.17	5586.86
412.36	5605.58
412.55	5514.30
412.74	5476.85
412.93	5242.80
413.12	5619.63
413.31	6106.46
413.50	5921.56
413.69	5989.43
413.88	5699.20
414.07	5565.79
414.26	5806.87
414.45	5919.21
414.64	5809.21
414.83	5926.24
415.02	5895.81
415.22	5778.78
415.41	6017.52
415.60	6064.33
415.79	6392.00
415.98	6499.67
416.17	6523.07
416.36	6347.53
416.55	6064.33
416.74	5902.83
416.93	5710.91
417.12	6033.90
417.31	5975.39
417.50	5998.79
417.69	6244.55
417.88	6239.87
418.07	6104.12
418.26	6043.26
418.45	6209.44
418.64	6373.28
418.83	6424.77
419.02	6195.40
419.21	6228.17
419.39	6069.01
419.58	5729.63
419.77	5820.91
419.96	6120.50
420.15	6399.02
420.34	6588.61
420.53	6820.32
420.72	6960.75
420.91	6918.62
421.10	6712.66
421.29	6731.38
421.48	6637.76
421.67	6822.66
421.86	6534.78
422.05	6012.84
422.24	5650.05
422.43	5701.54
422.61	6307.74
422.80	6438.81
422.99	6502.01
423.18	6310.08
423.37	6122.84
423.56	6265.61
423.75	6258.59
423.94	6354.55
424.13	6104.12
424.32	6094.76
424.50	5980.07
424.69	6174.33
424.88	6209.44
425.07	6207.10
425.26	5841.98
425.45	5963.68
425.64	5762.40
425.83	6080.71
426.01	6328.81
426.20	6403.71
426.39	6125.18
426.58	5661.76
426.77	5593.88
426.96	5195.99
427.15	5654.73
427.33	5809.21
427.52	5877.09
427.71	6174.33
427.90	6064.33
428.09	5940.28
428.28	5652.39
428.46	5518.98
428.65	5687.50
428.84	5893.47
429.03	5575.16
429.22	5359.83
429.40	4922.15
429.59	4493.83
429.78	4091.26
429.97	4175.52
430.16	4051.47
430.34	4187.22
430.53	4231.69
430.72	4559.36
430.91	5118.75
431.10	5895.81
431.28	6745.42
431.47	7213.53
431.66	7023.95
431.85	6401.37
432.03	5813.89
432.22	5769.42
432.41	6221.14
432.60	7014.59
432.79	7115.23
432.97	7101.19
433.16	6871.81
433.35	6258.59
433.54	5467.49
433.72	5289.61
433.91	5502.60
434.10	6363.92
434.28	6761.81
434.47	6963.09
434.66	6621.38
434.85	6593.29
435.03	6703.29
435.22	6869.47
435.41	7302.47
435.59	7218.21
435.78	7438.22
435.97	7337.58
436.16	7344.60
436.34	7445.24
436.53	7201.83
436.72	7218.21
436.90	6726.70
437.09	6855.43
437.28	6822.66
437.46	7005.22
437.65	6932.67
437.84	6499.67
438.02	6019.86
438.21	6080.71
438.40	6502.01
438.58	6803.94
438.77	6832.02
438.96	7199.49
439.14	7417.16
439.33	7398.43
439.52	7321.20
439.70	7339.92
439.89	7056.72
440.08	7030.97
440.26	7056.72
440.45	7325.88
440.63	7833.77
440.82	7971.86
441.01	7967.18
441.19	8093.57
441.38	8194.22
441.57	8456.36
441.75	8425.93
441.94	8503.17
442.12	8430.61
442.31	8470.40
442.50	8540.61
442.68	8428.27
442.87	8189.53
443.05	8009.31
443.24	8496.14
443.43	8809.78
443.61	8678.71
443.80	8795.73
443.98	8299.54
444.17	8503.17
444.35	8739.56
444.54	8777.01
444.73	8592.11
444.91	8344.01
445.10	7960.16
445.28	7700.36
445.47	7808.03
445.65	7520.14
445.84	7871.22
446.02	7932.08
446.21	8311.24
446.39	8065.49
446.58	8318.26
446.77	8262.09
446.95	8400.18
447.14	8828.50
447.32	8910.42
447.51	8503.17
447.69	8320.60
447.88	8196.56
448.06	8503.17
448.25	8463.38
448.43	8442.31
448.62	8524.23
448.80	8444.65
448.99	8683.39
449.17	8613.17
449.36	8631.90
449.54	8706.79
449.73	8990.00
449.91	9085.96
450.10	9013.40
450.28	9619.60
450.46	9165.54
450.65	9387.89
450.83	9224.05
451.02	8936.17
451.20	9036.81
451.39	8875.31
451.57	8786.37
451.76	8924.46
451.94	8816.80
452.13	8674.03
452.31	8241.03
452.49	7847.82
452.68	8021.02
452.86	8154.43
453.05	8229.32
453.23	8800.41
453.42	8589.77
453.60	8901.06
453.78	8840.20
453.97	8566.36
454.15	8858.93
454.34	8306.56
454.52	8461.04
454.70	8362.73
454.89	8521.89
455.07	8678.71
455.26	8973.61
455.44	9125.75
455.62	9376.19
455.81	9153.84
455.99	8922.12
456.17	9076.60
456.36	9121.07
456.54	9177.24
456.73	9085.96
456.91	9207.67
457.09	9563.43
457.28	9612.58
457.46	9158.52
457.64	8908.08
457.83	8566.36
458.01	8748.92
458.19	8828.50
458.38	9006.38
458.56	8849.57
458.74	9100.00
458.93	8884.67
459.11	8982.98
459.29	9102.34
459.48	9006.38
459.66	9006.38
459.84	8879.99
460.03	9170.22
460.21	8966.59
460.39	9455.76
460.57	9598.54
460.76	9446.40
460.94	9378.53
461.12	9160.86
461.31	9298.95
461.49	9191.28
461.67	9238.09
461.85	9497.89
462.04	9420.66
462.22	9474.49
462.40	9383.21
462.59	9497.89
462.77	9521.30
462.95	9451.08
463.13	9521.30
463.32	9238.09
463.50	8662.32
463.68	9291.93
463.86	9057.87
464.05	8957.23
464.23	8915.10
464.41	8905.74
464.59	8739.56
464.78	9280.22
464.96	9069.58
465.14	9018.08
465.32	9067.24
465.50	9268.52
465.69	9514.28
465.87	9298.95
466.05	8746.58
466.23	8416.57
466.41	8444.65
466.60	8706.79
466.78	8882.33
466.96	8910.42
467.14	8926.80
467.32	8826.16
467.51	9144.47
467.69	8585.08
467.87	8732.54
468.05	8667.00
468.23	8922.12
468.41	8868.29
468.60	8748.92
468.78	9125.75
468.96	8999.36
469.14	9172.56
469.32	9266.18
469.50	8793.39
469.69	8603.81
469.87	8571.04
470.05	8791.05
470.23	8475.08
470.41	8566.36
470.59	8800.41
470.77	8840.20
470.95	8875.31
471.14	9069.58
471.32	9121.07
471.50	9542.36
471.68	9750.67
471.86	10001.11
472.04	9668.75
472.22	9909.83
472.40	9453.42
472.58	9100.00
472.77	8947.87
472.95	9130.43
473.13	9430.02
473.31	9156.18
473.49	9174.90
473.67	9586.83
473.85	9462.79
474.03	10003.45
474.21	9659.39
474.39	9708.54
474.57	9884.08
474.75	9753.01
474.93	9547.05
475.12	9364.48
475.30	9420.66
475.48	9453.42
475.66	9989.41
475.84	9540.02
476.02	9448.74
476.20	9425.34
476.38	9493.21
476.56	10017.49
476.74	10099.41
476.92	9839.61
477.10	10047.92
477.28	10581.56
477.46	10523.05
477.64	10513.69
477.82	10501.98
478.00	10356.87
478.18	10263.25
478.36	10265.59
478.54	10406.02
478.72	10289.00
478.90	10740.72
479.08	10885.83
479.26	10970.09
479.44	10988.82
479.62	10803.91
479.80	10911.58
479.98	10946.69
480.16	10696.25
480.34	10705.61
480.52	10939.66
480.70	11323.51
480.88	10977.11
481.06	11477.99
481.24	11309.47
481.41	11545.86
481.59	11456.92
481.77	11389.05
481.95	11522.46
482.13	11265.00
482.31	11485.01
482.49	11681.61
482.67	11609.06
482.85	11431.18
483.03	11793.96
483.21	11974.18
483.39	11812.68
483.57	11878.22
483.74	11786.94
483.92	11719.06
484.10	11932.05
484.28	11784.60
484.46	11901.62
484.64	11976.52
484.82	11651.19
485.00	11384.37
485.18	11403.09
485.35	11082.44
485.53	10015.15
485.71	9287.25
485.89	9544.70
486.07	9991.75
486.25	10853.06
486.43	11279.04
486.61	11620.76
486.78	11337.56
486.96	11447.56
487.14	11667.57
487.32	11903.96
487.50	12463.35
487.68	12578.04
487.85	12774.64
488.03	13025.08
488.21	12835.50
488.39	12376.75
488.57	12084.19
488.75	12400.16
488.92	12968.91
489.10	13654.69
489.28	13975.34
489.46	14249.18
489.64	13797.46
489.81	13778.73
489.99	13685.11
490.17	13813.84
490.35	14532.39
490.53	13855.97
490.70	13818.52
490.88	13729.58
491.06	14583.88
491.24	13757.67
491.41	13345.73
491.59	12978.27
491.77	12435.27
491.95	13221.69
492.13	13444.04
492.30	13928.53
492.48	14548.77
492.66	14562.81
492.84	14827.29
493.01	14403.66
493.19	14083.00
493.37	14281.95
493.54	13818.52
493.72	14396.64
493.90	14827.29
494.08	15089.43
494.25	15131.56
494.43	15576.27
494.61	15763.51
494.79	15433.49
494.96	15697.97
495.14	14691.54
495.32	14670.48
495.49	14560.47
495.67	14719.63
495.85	15604.35
496.02	15843.09
496.20	15463.92
496.38	15344.55
496.55	15276.68
496.73	15655.84
496.91	15723.72
497.09	16126.29
497.26	15845.43
497.44	15590.31
497.62	14941.98
497.79	14670.48
497.97	14417.70
498.14	14796.87
498.32	15094.11
498.50	15428.81
498.67	16067.78
498.85	15627.76
499.03	15854.79
499.20	15960.11
499.38	15800.96
499.56	15913.30
499.73	15665.21
499.91	15377.32
500.08	14984.11
500.26	14602.60
500.44	15000.49
500.61	15393.70
500.79	14696.22
500.97	14743.03
501.14	14930.28
501.32	14754.74
501.49	15358.60
501.67	15143.27
501.84	15396.04
502.02	15286.04
502.20	15386.68
502.37	15468.60
502.55	15133.90
502.72	15646.48
502.90	16060.76
503.07	15950.75
503.25	15679.25
503.43	14768.78
503.60	14312.38
503.78	14122.79
503.95	14370.89
504.13	15108.16
504.30	15623.08
504.48	15379.66
504.65	15290.72
504.83	15466.26
505.01	15873.51
505.18	16414.18
505.36	16542.91
505.53	16636.53
505.71	16456.31
505.88	16538.23
506.06	16119.27
506.23	15857.13
506.41	15452.22
506.58	15641.80
506.76	15585.63
506.93	15955.43
507.11	15620.74
507.28	15405.41
507.46	15382.00
507.63	14878.79
507.81	14839.00
507.98	15241.57
508.16	15379.66
508.33	15592.65
508.50	16032.67
508.68	16088.84
508.85	16430.56
509.03	16538.23
509.20	16116.93
509.38	15602.01
509.55	15225.18
509.73	15379.66
509.90	15510.73
510.08	15688.61
510.25	15307.10
510.42	15243.91
510.60	15728.40
510.77	15704.99
510.95	16147.36
511.12	15983.52
511.30	16140.33
511.47	16184.80
511.64	16423.54
511.82	15782.23
511.99	15435.83
512.17	15236.89
512.34	15435.83
512.51	15211.14
512.69	15468.60
512.86	15077.73
513.04	15875.85
513.21	15632.44
513.38	15138.58
513.56	14684.52
513.73	14630.69
513.90	15033.26
514.08	14743.03
514.25	14874.10
514.43	15286.04
514.60	15494.35
514.77	15169.01
514.95	15484.98
515.12	15295.40
515.29	15150.29
515.47	15513.07
515.64	15789.25
515.81	16095.86
515.99	15286.04
516.16	14441.11
516.33	13081.25
516.51	12669.32
516.68	12046.74
516.85	11866.52
517.03	12255.04
517.20	13427.65
517.37	14626.01
517.54	14656.43
517.72	14366.21
517.89	12975.93
518.06	12318.24
518.24	12758.26
518.41	13722.56
518.58	14209.39
518.75	14427.06
518.93	14616.65
519.10	14590.90
519.27	15000.49
519.45	14853.04
519.62	14750.06
519.79	15131.56
519.96	15056.67
520.14	14607.28
520.31	14260.88
520.48	14356.85
520.65	14661.12
520.83	15115.18
521.00	15192.42
521.17	15157.31
521.34	14782.82
521.52	14981.77
521.69	15583.29
521.86	14944.32
522.03	15253.27
522.20	14675.16
522.38	14162.58
522.55	14356.85
522.72	14508.98
522.89	14523.02
523.07	14979.43
523.24	15344.55
523.41	15449.88
523.58	15630.10
523.75	15405.41
523.92	15466.26
524.10	15721.38
524.27	15454.56
524.44	15183.06
524.61	15384.34
524.78	15250.93
524.96	14649.41
525.13	15040.28
525.30	15178.37
525.47	15075.39
525.64	15232.21
525.81	14618.99
525.98	13479.15
526.16	13282.54
526.33	12587.40
526.50	12781.67
526.67	12655.28
526.84	12868.27
527.01	13804.48
527.18	14047.90
527.36	14700.90
527.53	14883.47
527.70	14750.06
527.87	14448.13
528.04	14295.99
528.21	14602.60
528.38	15122.20
528.55	15878.19
528.72	15346.89
528.89	15161.99
529.07	15318.81
529.24	14944.32
529.41	14719.63
529.58	14143.86
529.75	14408.34
529.92	14293.65
530.09	14932.62
530.26	14803.89
530.43	14918.57
530.60	15068.37
530.77	15562.22
530.94	14829.63
531.11	14604.94
531.28	14738.35
531.46	14757.08
531.63	14525.36
531.80	14157.90
531.97	14600.26
532.14	13944.91
532.31	13067.21
532.48	13088.28
532.65	13163.17
532.82	14038.53
532.99	14384.93
533.16	14705.59
533.33	14724.31
533.50	14391.95
533.67	13816.18
533.84	13650.00
534.01	13872.36
534.18	14019.81
534.35	14293.65
534.52	14075.98
534.69	14438.76
534.86	14494.94
535.03	14604.94
535.20	14719.63
535.37	14909.21
535.54	15005.17
535.71	14579.20
535.88	14754.74
536.05	14436.42
536.22	14466.85
536.38	13823.20
536.55	13474.46
536.72	13572.77
536.89	13523.62
537.06	13561.06
537.23	13802.14
537.40	14129.81
537.57	14263.22
537.74	14008.11
537.91	13886.40
538.08	14071.30
538.25	14132.15
538.42	14085.34
538.59	14136.84
538.75	13820.86
538.92	13596.17
539.09	13097.64
539.26	13043.81
539.43	12580.38
539.60	12973.59
539.77	13088.28
539.94	13238.07
540.11	12769.96
540.28	12561.66
540.44	12755.92
540.61	12685.70
540.78	12889.33
540.95	13497.87
541.12	13659.37
541.29	13355.10
541.46	13310.63
541.62	13413.61
541.79	13369.14
541.96	13083.59
542.13	13088.28
542.30	13263.82
542.47	13322.33
542.63	12994.65
542.80	12837.84
542.97	12966.57
543.14	12924.44
543.31	12760.60
543.48	13312.97
543.64	13465.10
543.81	13331.69
543.98	13406.59
544.15	13069.55
544.32	12912.74
544.48	13013.38
544.65	13425.31
544.82	13137.43
544.99	13046.15
545.16	13205.30
545.32	13116.36
545.49	13266.16
545.66	13495.53
545.83	13523.62
546.00	13303.60
546.16	13055.51
546.33	13460.42
546.50	13135.09
546.67	13350.42
546.83	13205.30
547.00	13015.72
547.17	12776.98
547.34	12798.05
547.50	12568.68
547.67	12528.89
547.84	12659.96
548.00	12982.95
548.17	13303.60
548.34	12943.16
548.51	13156.15
548.67	13109.34
548.84	13181.90
549.01	13453.40
549.18	12800.39
549.34	12791.03
549.51	12449.31
549.68	12767.62
549.84	12741.88
550.01	12634.21
550.18	12758.26
550.34	12435.27
550.51	12271.43
550.68	12468.03
550.84	12545.27
551.01	12521.87
551.18	12582.72
551.34	12741.88
551.51	12531.23
551.68	12886.99
551.84	12851.88
552.01	12505.48
552.18	12400.16
552.34	12191.85
552.51	12046.74
552.68	12245.68
552.84	12126.32
553.01	12390.80
553.18	12493.78
553.34	12702.09
553.51	12435.27
553.67	12152.06
553.84	12191.85
554.01	12168.45
554.17	12631.87
554.34	12603.78
554.51	12755.92
554.67	12428.24
554.84	12573.36
555.00	12725.49
555.17	12421.22
555.33	12765.28
555.50	12709.11
555.67	12203.55
555.83	12524.21
556.00	12065.46
556.16	11817.36
556.33	11915.67
556.50	11777.58
556.66	11571.61
556.83	11648.85
556.99	11878.22
557.16	11686.29
557.32	11730.76
557.49	12203.55
557.65	11726.08
557.82	12023.33
557.98	11698.00
558.15	11435.86
558.32	11356.28
558.48	11012.22
558.65	10970.09
558.81	11372.66
558.98	11356.28
559.14	11452.24
559.31	11625.44
559.47	11229.89
559.64	11154.99
559.80	11089.46
559.97	11293.08
560.13	11587.99
560.30	11894.60
560.46	12397.82
560.63	12077.16
560.79	12100.57
560.96	12070.14
561.12	11342.24
561.29	11124.57
561.45	10965.41
561.61	11068.39
561.78	11180.74
561.94	11246.27
562.11	11286.06
562.27	11323.51
562.44	11482.67
562.60	11492.03
562.77	11681.61
562.93	11426.50
563.10	11632.46
563.26	11227.55
563.42	10846.04
563.59	11061.37
563.75	11108.18
563.92	11297.77
564.08	11112.86
564.24	11286.06
564.41	10965.41
564.57	11171.38
564.74	11091.80
564.90	10750.08
565.07	10932.64
565.23	10862.43
565.39	10693.91
565.56	10530.07
565.72	10520.71
565.88	10649.44
566.05	10796.89
566.21	10579.22
566.38	10471.56
566.54	10839.02
566.70	10827.32
566.87	10789.87
567.03	11047.33
567.19	11171.38
567.36	10445.81
567.52	10867.11
567.68	10874.13
567.85	10431.77
568.01	10200.05
568.17	10162.61
568.34	10200.05
568.50	9966.00
568.66	9994.09
568.83	10382.62
568.99	10417.72
569.15	10001.11
569.32	10429.43
569.48	10223.46
569.64	10459.85
569.81	10310.06
569.97	9984.73
570.13	10139.20
570.30	9867.70
570.46	9745.99
570.62	9502.58
570.78	9516.62
570.95	9577.47
571.11	9944.94
571.27	10193.03
571.43	10132.18
571.60	10279.63
571.76	10136.86
571.92	10363.89
572.09	10155.58
572.25	9998.77
572.41	10373.25
572.57	10317.08
572.74	10200.05
572.90	9865.36
573.06	10209.42
573.22	10171.97
573.38	10244.52
573.55	9977.70
573.71	10127.50
573.87	10274.95
574.03	9958.98
574.20	9921.53
574.36	9802.16
574.52	9624.28
574.68	9961.32
574.84	9530.66
575.01	9289.59
575.17	9287.25
575.33	9446.40
575.49	9591.52
575.65	9345.76
575.82	9525.98
575.98	9392.57
576.14	9364.48
576.30	9577.47
576.46	9458.10
576.62	9359.80
576.79	9818.55
576.95	9451.08
577.11	9476.83
577.27	9535.34
577.43	9366.82
577.59	9514.28
577.75	9371.50
577.92	9378.53
578.08	9118.73
578.24	9167.88
578.40	9177.24
578.56	9149.15
578.72	8966.59
578.88	9083.62
579.04	9132.77
579.21	9355.12
579.37	9584.49
579.53	9153.84
579.69	9018.08
579.85	9191.28
580.01	8882.33
580.17	9022.77
580.33	9380.87
580.49	9390.23
580.65	9263.84
580.82	9191.28
580.98	9210.01
581.14	9252.14
581.30	9219.37
581.46	9366.82
581.62	9495.55
581.78	9401.93
581.94	9619.60
582.10	9256.82
582.26	9584.49
582.42	9217.03
582.58	9369.16
582.74	9383.21
582.90	9411.29
583.06	9542.36
583.22	9537.68
583.38	9397.25
583.54	9261.50
583.70	9291.93
583.86	9301.29
584.02	9432.36
584.18	9240.44
584.34	9224.05
584.50	9425.34
584.66	9364.48
584.82	9071.92
584.98	9130.43
585.14	8791.05
585.30	8561.68
585.46	8454.02
585.62	8491.46
585.78	8561.68
585.94	8580.40
586.10	8891.70
586.26	8982.98
586.42	9144.47
586.58	8805.10
586.74	8737.22
586.90	8896.38
587.06	8519.55
587.22	8533.59
587.38	8533.59
587.54	8512.53
587.70	8397.84
587.86	8079.53
588.02	8507.85
588.18	8088.89
588.34	7934.42
588.49	7630.15
588.65	7197.15
588.81	6918.62
588.97	7349.28
589.13	7365.67
589.29	7206.51
589.45	7506.10
589.61	7499.08
589.77	7857.18
589.93	8021.02
590.08	8093.57
590.24	8432.95
590.40	8208.26
590.56	8241.03
590.72	8091.23
590.88	7950.80
591.04	8234.00
591.20	8184.85
591.35	7831.43
591.51	8063.15
591.67	8217.62
591.83	8009.31
591.99	7943.78
592.15	8098.25
592.31	8290.18
592.46	7932.08
592.62	7918.03
592.78	8252.73
592.94	7969.52
593.10	7990.59
593.26	7925.05
593.41	7829.09
593.57	7960.16
593.73	7609.08
593.89	7784.62
594.05	7609.08
594.20	7634.83
594.36	7679.30
594.52	7768.24
594.68	7634.83
594.84	7698.02
594.99	7398.43
595.15	7723.77
595.31	7754.19
595.47	7798.66
595.62	7756.54
595.78	7779.94
595.94	7749.51
596.10	7719.09
596.25	7716.75
596.41	7698.02
596.57	7932.08
596.73	7789.30
596.88	7733.13
597.04	7452.27
597.20	7337.58
597.36	7337.58
597.51	7648.87
597.67	7440.56
597.83	7595.04
597.99	7428.86
598.14	7190.13
598.30	7489.71
598.46	7321.20
598.61	7353.96
598.77	7342.26
598.93	7627.81
599.09	7576.31
599.24	7520.14
599.40	7513.12
599.56	7360.98
599.71	7733.13
599.87	7478.01
600.03	7246.30
600.18	7368.01
600.34	7442.90
600.50	7454.61
600.65	7438.22
600.81	7784.62
600.97	7365.67
601.12	7468.65
601.28	7248.64
601.44	7218.21
601.59	7239.28
601.75	7220.55
601.91	7211.19
602.06	7096.50
602.22	7250.98
602.37	7248.64
602.53	7302.47
602.69	7358.64
602.84	7707.38
603.00	7520.14
603.16	7363.33
603.31	7487.37
603.47	7281.41
603.62	7222.89
603.78	7344.60
603.94	7091.82
604.09	7253.32
604.25	7449.93
604.40	7262.68
604.56	7213.53
604.71	7258.00
604.87	7414.82
605.03	7250.98
605.18	7269.70
605.34	7211.19
605.49	7194.81
605.65	7307.15
605.80	7145.66
605.96	7239.28
606.12	7166.72
606.27	7080.12
606.43	7096.50
606.58	7269.70
606.74	7269.70
606.89	7019.27
607.05	7030.97
607.20	7105.87
607.36	7091.82
607.51	6981.82
607.67	7033.31
607.82	7103.53
607.98	7012.24
608.13	6761.81
608.29	6813.30
608.44	6609.67
608.60	6647.12
608.75	6789.89
608.91	6754.79
609.06	6958.41
609.22	6614.35
609.37	6710.32
609.53	6705.63
609.68	6349.87
609.84	6239.87
609.99	6270.30
610.15	6377.96
610.30	6310.08
610.46	6392.00
610.61	6857.77
610.76	6785.21
610.92	6956.07
611.07	6906.92
611.23	7021.61
611.38	6733.72
611.54	6656.48
611.69	6478.60
611.84	6520.73
612.00	6307.74
612.15	6333.49
612.31	6464.56
612.46	6443.49
612.62	6647.12
612.77	6436.47
612.92	6801.60
613.08	6289.02
613.23	6120.50
613.39	6146.25
613.54	6129.86
613.69	6108.80
613.85	6305.40
614.00	6296.04
614.15	6057.31
614.31	6389.66
614.46	6303.06
614.62	6354.55
614.77	6085.39
614.92	6087.73
615.08	6279.66
615.23	6363.92
615.38	6366.26
615.54	6125.18
615.69	5954.32
615.84	5769.42
616.00	5753.04
616.15	6064.33
616.30	5923.90
616.46	5813.89
616.61	6054.97
616.76	6094.76
616.92	5944.96
617.07	6162.63
617.22	5991.77
617.37	6125.18
617.53	5977.73
617.68	5921.56
617.83	6125.18
617.99	6146.25
618.14	6066.67
618.29	5942.62
618.45	5867.72
618.60	5638.35
618.75	5809.21
618.90	5940.28
619.06	5907.51
619.21	5961.34
619.36	6146.25
619.51	6071.35
619.67	6061.99
619.82	5851.34
619.97	5872.40
620.12	6073.69
620.28	5624.31
620.43	6125.18
620.58	6026.88
620.73	5989.43
620.89	5947.30
621.04	5806.87
621.19	5837.30
621.34	5811.55
621.49	5736.65
621.65	5858.36
621.80	5809.21
621.95	5731.97
622.10	5755.38
622.25	5668.78
622.41	5521.32
622.56	5535.37
622.71	5675.80
622.86	5530.69
623.01	5526.00
623.16	5664.10
623.32	5458.13
623.47	5469.83
623.62	5678.14
623.77	5565.79
623.92	5416.00
624.07	5385.57
624.23	5467.49
624.38	5336.42
624.53	5474.51
624.68	5390.25
624.83	5200.67
624.98	5174.92
625.13	5219.39
625.29	5160.88
625.44	5268.55
625.59	5401.96
625.74	5483.88
625.89	5322.38
626.04	5186.63
626.19	5203.01
626.34	5298.97
626.49	5144.50
626.65	5067.26
626.80	5132.79
626.95	5203.01
627.10	5083.64
627.25	4917.47
627.40	4699.80
627.55	4704.48
627.70	4774.69
627.85	4905.76
628.00	4894.06
628.15	5001.72
628.30	4823.84
628.45	4931.51
628.60	4947.89
628.76	4901.08
628.91	4863.63
629.06	5027.47
629.21	4898.74
629.36	5006.41
629.51	4781.71
629.66	4704.48
629.81	4809.80
629.96	4924.49
630.11	4997.04
630.26	4840.23
630.41	4999.38
630.56	4802.78
630.71	4709.16
630.86	4926.83
631.01	4830.87
631.16	4741.93
631.31	4844.91
631.46	4833.21
631.61	4655.33
631.76	4702.14
631.91	4599.15
632.06	4697.46
632.21	4791.08
632.36	4915.12
632.51	4723.20
632.66	4681.07
632.81	4840.23
632.96	4720.86
633.10	4519.57
633.25	4706.82
633.40	4863.63
633.55	4664.69
633.70	4643.62
633.85	4669.37
634.00	4573.41
634.15	4718.52
634.30	4571.07
634.45	4671.71
634.60	4791.08
634.75	4802.78
634.90	4720.86
635.05	4791.08
635.19	4828.53
635.34	4695.11
635.49	4521.92
635.64	4510.21
635.79	4402.55
635.94	4568.73
636.09	4615.54
636.24	4870.65
636.39	4631.92
636.53	4699.80
636.68	4676.39
636.83	4599.15
636.98	4643.62
637.13	4830.87
637.28	4610.86
637.43	4615.54
637.57	4479.79
637.72	4498.51
637.87	4552.34
638.02	4404.89
638.17	4496.17
638.32	4699.80
638.46	4552.34
638.61	4379.14
638.76	4535.96
638.91	4734.90
639.06	4550.00
639.20	4505.53
639.35	4432.97
639.50	4365.10
639.65	4201.26
639.80	4414.25
639.94	4351.06
640.09	4355.74
640.24	4402.55
640.39	4407.23
640.54	4475.10
640.68	4400.21
640.83	4283.18
640.98	4498.51
641.13	4297.22
641.27	4297.22
641.42	4231.69
641.57	4358.08
641.72	4325.31
641.86	4292.54
642.01	4325.31
642.16	4346.37
642.31	4128.70
642.45	4315.95
642.60	4184.88
642.75	4203.60
642.90	4278.50
643.04	4304.25
643.19	4234.03
643.34	4189.56
643.48	4105.30
643.63	4084.23
643.78	4180.20
643.93	4217.65
644.07	4287.86
644.22	4280.84
644.37	4109.98
644.51	4138.07
644.66	4105.30
644.81	4009.34
644.95	4067.85
645.10	4161.47
645.25	4009.34
645.39	4046.79
645.54	4046.79
645.69	3885.29
645.83	4070.19
645.98	4056.15
646.13	4072.53
646.27	4093.60
646.42	3964.87
646.57	3845.50
646.71	3936.78
646.86	3864.22
647.00	3749.54
647.15	3641.87
647.30	3840.82
647.44	3794.01
647.59	3733.15
647.74	3667.62
647.88	3742.52
648.03	3604.42
648.17	3660.60
648.32	3786.99
648.47	3712.09
648.61	3723.79
648.76	3611.45
648.90	3592.72
649.05	3527.19
649.20	3475.70
649.34	3349.31
649.49	3527.19
649.63	3541.23
649.78	3541.23
649.92	3742.52
650.07	3665.28
650.21	3681.66
650.36	3714.43
650.51	3798.69
650.65	3763.58
650.80	3728.47
650.94	3833.80
651.09	3618.47
651.23	3653.58
651.38	3459.31
651.52	3295.47
651.67	3562.30
651.81	3555.27
651.96	3632.51
652.10	3513.14
652.25	3604.42
652.39	3552.93
652.54	3667.62
652.68	3667.62
652.83	3742.52
652.97	3592.72
653.12	3499.10
653.26	3632.51
653.41	3620.81
653.55	3566.98
653.70	3777.62
653.84	3583.36
653.99	3510.80
654.13	3555.27
654.27	3471.01
654.42	3421.86
654.56	3225.26
654.71	3211.22
654.85	3480.38
655.00	3325.90
655.14	3335.26
655.29	3316.54
655.43	3344.63
655.57	3087.17
655.72	2881.20
655.86	2670.55
656.01	2548.84
656.15	2654.17
656.30	2822.69
656.44	2958.44
656.58	2911.63
656.73	3038.02
656.87	3014.61
657.01	3108.23
657.16	3070.78
657.30	3274.41
657.45	3478.04
657.59	3344.63
657.73	3283.77
657.88	3389.10
658.02	3260.37
658.16	3239.30
658.31	3330.58
658.45	3260.37
658.60	3211.22
658.74	3274.41
658.88	3218.24
659.03	3171.43
659.17	3133.98
659.31	3176.11
659.46	3325.90
659.60	3503.78
659.74	3365.69
659.89	3309.52
660.03	3204.19
660.17	3309.52
660.32	3208.87
660.46	3225.26
660.60	3206.53
660.74	3232.28
660.89	3136.32
661.03	3080.14
661.17	3082.49
661.32	3136.32
661.46	3258.03
661.60	3318.88
661.74	3234.62
661.89	3335.26
662.03	3351.65
662.17	3194.83
662.31	3227.60
662.46	3274.41
662.60	3066.10
662.74	3023.97
662.88	2960.78
663.03	3040.36
663.17	3084.83
663.31	3070.78
663.45	3094.19
663.60	2967.80
663.74	3084.83
663.88	2944.39
664.02	2960.78
664.17	2932.69
664.31	2881.20
664.45	2843.75
664.59	2995.89
664.73	2916.31
664.88	2972.48
665.02	3122.27
665.16	2956.10
665.30	3012.27
665.44	3075.46
665.59	3054.40
665.73	2967.80
665.87	2853.11
666.01	3159.72
666.15	3082.49
666.29	3084.83
666.44	3056.74
666.58	2958.44
666.72	2860.13
666.86	2801.62
667.00	2864.82
667.14	3045.04
667.28	2843.75
667.43	2766.51
667.57	2949.08
667.71	2871.84
667.85	2686.94
667.99	2920.99
668.13	2792.26
668.27	2843.75
668.41	2773.53
668.56	2745.45
668.70	2853.11
668.84	2771.19
668.98	2759.49
669.12	2818.00
669.26	2958.44
669.40	2883.54
669.54	2799.28
669.68	2703.32
669.82	2818.00
669.96	2722.04
670.10	2775.88
670.25	2593.31
670.39	2782.90
670.53	2813.32
670.67	2607.36
670.81	2773.53
670.95	2738.43
671.09	2661.19
671.23	2565.23
671.37	2544.16
671.51	2532.46
671.65	2576.93
671.79	2422.45
671.93	2448.20
672.07	2445.86
672.21	2539.48
672.35	2588.63
672.49	2480.97
672.63	2553.52
672.77	2609.70
672.91	2633.10
673.05	2642.46
673.19	2565.23
673.33	2396.71
673.47	2527.78
673.61	2649.49
673.75	2544.16
673.89	2387.35
674.03	2415.43
674.17	2487.99
674.31	2537.14
674.45	2518.42
674.59	2464.58
674.73	2555.86
674.87	2480.97
675.01	2459.90
675.15	2403.73
675.29	2389.69
675.43	2392.03
675.56	2293.72
675.70	2319.47
675.84	2300.75
675.98	2225.85
676.12	2307.77
676.26	2389.69
676.40	2319.47
676.54	2300.75
676.68	2324.15
676.82	2289.04
676.96	2300.75
677.10	2286.70
677.23	2277.34
677.37	2324.15
677.51	2235.21
677.65	2265.64
677.79	2239.89
677.93	2293.72
678.07	2256.28
678.21	2277.34
678.34	2176.70
678.48	2186.06
678.62	2275.00
678.76	2265.64
678.90	2064.35
679.04	2087.76
679.18	2115.84
679.31	2108.82
679.45	2062.01
679.59	2097.12
679.73	2069.03
679.87	1940.30
680.00	1998.82
680.14	2120.53
680.28	2087.76
680.42	1926.26
680.56	1895.83
680.70	2010.52
680.83	1933.28
680.97	2008.18
681.11	1956.69
681.25	1923.92
681.39	1996.48
681.52	1891.15
681.66	2038.61
681.80	1867.75
681.94	1949.67
682.07	1902.86
682.21	1874.77
682.35	1916.90
682.49	1884.13
682.62	1872.43
682.76	1940.30
682.90	1919.24
683.04	1914.56
683.17	1842.00
683.31	1895.83
683.45	1874.77
683.59	1713.27
683.72	1933.28
683.86	1781.15
684.00	1755.40
684.13	1645.40
684.27	1666.46
684.41	1746.04
684.55	1771.79
684.68	1844.34
684.82	1736.68
684.96	1715.61
685.09	1724.97
685.23	1678.16
685.37	1724.97
685.50	1834.98
685.64	1717.95
685.78	1596.25
685.91	1729.66
686.05	1629.01
686.19	1556.46
686.32	1556.46
686.46	1294.32
686.60	1167.93
686.73	1036.86
686.87	1036.86
687.01	905.79
687.14	966.64
687.28	1071.97
687.42	1135.16
687.55	1226.44
687.69	1233.46
687.82	1247.51
687.96	1334.11
688.10	1334.11
688.23	1320.06
688.37	1282.61
688.50	1291.98
688.64	1338.79
688.78	1224.10
688.91	1231.12
689.05	1261.55
689.18	1259.21
689.32	1109.41
689.46	1256.87
689.59	1357.51
689.73	1266.23
689.86	1188.99
690.00	1153.88
690.13	1284.95
690.27	1268.57
690.41	1231.12
690.54	1226.44
690.68	1259.21
690.81	1301.34
690.95	1266.23
691.08	1277.93
691.22	1263.89
691.35	1282.61
691.49	1273.25
691.62	1425.39
691.76	1245.16
691.89	1242.82
692.03	1205.38
692.16	1188.99
692.30	1301.34
692.43	1259.21
692.57	1228.78
692.70	1163.25
692.84	1205.38
692.97	1144.52
693.11	1186.65
693.24	1191.33
693.38	1090.69
693.51	1252.19
693.65	1074.31
693.78	1107.07
693.92	1111.75
694.05	1081.33
694.19	1156.22
694.32	1123.46
694.45	1135.16
694.59	1142.18
694.72	1214.74
694.86	1200.69
694.99	1151.54
695.13	1069.62
695.26	1050.90
695.39	1032.18
695.53	1048.56
695.66	1027.50
695.80	1034.52
695.93	1090.69
696.07	1130.48
696.20	1067.28
696.33	1032.18
696.47	1184.31
696.60	1053.24
696.73	1074.31
696.87	1102.39
697.00	1090.69
697.14	1135.16
697.27	1015.79
697.40	1015.79
697.54	968.98
697.67	987.71
697.80	968.98
697.94	990.05
698.07	884.72
698.21	950.26
698.34	947.92
698.47	917.49
698.61	816.85
698.74	917.49
698.87	800.46
699.01	912.81
699.14	887.06
699.27	908.13
699.40	870.68
699.54	847.27
699.67	924.51
699.80	863.66
699.94	863.66
700.07	821.53
700.20	947.92
700.34	784.08
700.47	894.08
700.60	826.21
700.73	814.51
700.87	877.70
701.00	812.17
701.13	793.44
701.26	795.78
701.40	777.06
701.53	828.55
701.66	784.08
701.79	861.32
701.93	758.33
702.06	800.46
702.19	828.55
702.32	753.65
702.46	737.27
702.59	671.73
702.72	786.42
702.85	781.74
702.99	781.74
703.12	767.70
703.25	746.63
703.38	751.31
703.51	702.16
703.65	692.80
703.78	760.67
703.91	795.78
704.04	732.59
704.17	805.14
704.31	746.63
704.44	774.72
704.57	704.50
704.70	676.41
704.83	699.82
704.96	622.58
705.10	645.99
705.23	629.60
>>>>>End Processed Spectral Data<<<<<
