SpectraSuite Data File
++++++++++++++++++++++++++++++++++++
Date: Mon Oct 07 14:53:39 GMT-05:00 2013
User: price-jones
Dark Spectrum Present: No
Reference Spectrum Present: No
Number of Sampled Component Spectra: 1
Spectrometers: USB2+H05261
Integration Time (usec): 100000 (USB2+H05261)
Spectra Averaged: 1 (USB2+H05261)
Boxcar Smoothing: 0 (USB2+H05261)
Correct for Electrical Dark: No (USB2+H05261)
Strobe/Lamp Enabled: No (USB2+H05261)
Correct for Detector Non-linearity: No (USB2+H05261)
Correct for Stray Light: No (USB2+H05261)
Number of Pixels in Processed Spectrum: 2048
>>>>>Begin Processed Spectral Data<<<<<
365.73	0.00
365.92	0.00
366.12	0.00
366.32	0.00
366.52	0.00
366.72	0.00
366.91	0.00
367.11	0.00
367.31	0.00
367.51	0.00
367.70	0.00
367.90	0.00
368.10	0.00
368.30	0.00
368.49	0.00
368.69	0.00
368.89	0.00
369.09	0.00
369.28	0.00
369.48	0.00
369.68	0.00
369.87	0.00
370.07	0.00
370.27	0.00
370.47	276.18
370.66	1839.66
370.86	2094.78
371.06	2345.22
371.25	2324.15
371.45	2277.34
371.65	2010.52
371.84	1849.02
372.04	1895.83
372.24	2125.21
372.44	2272.66
372.63	2218.83
372.83	2134.57
373.03	1715.61
373.22	1727.32
373.42	1727.32
373.62	1961.37
373.81	2307.77
374.01	2237.55
374.21	1926.26
374.40	1909.88
374.60	1905.20
374.79	2230.53
374.99	2609.70
375.19	2864.82
375.38	2637.78
375.58	2651.83
375.78	2534.80
375.97	2555.86
376.17	2726.72
376.37	2647.15
376.56	2789.92
376.76	2909.29
376.95	3028.65
377.15	3330.58
377.35	3370.37
377.54	3569.32
377.74	3478.04
377.93	3634.85
378.13	3644.21
378.33	3487.40
378.52	3063.76
378.72	2925.67
378.91	3000.57
379.11	2794.60
379.31	2778.22
379.50	2771.19
379.70	3138.66
379.89	3283.77
380.09	3428.88
380.28	3632.51
380.48	3611.45
380.68	3485.06
380.87	3438.25
381.07	3293.13
381.26	2981.84
381.46	2747.79
381.65	2794.60
381.85	2616.72
382.04	2553.52
382.24	2394.37
382.43	2195.42
382.63	2190.74
382.83	2345.22
383.02	2207.13
383.22	2193.08
383.41	2300.75
383.61	2455.22
383.80	2771.19
384.00	3059.08
384.19	3384.41
384.39	3513.14
384.58	3606.77
384.78	3524.85
384.97	3454.63
385.17	3344.63
385.36	3171.43
385.56	3101.21
385.75	3169.09
385.95	3398.46
386.14	3742.52
386.34	3702.73
386.53	3543.57
386.72	3220.58
386.92	3290.79
387.11	3578.68
387.31	3730.81
387.50	3695.71
387.70	3417.18
387.89	3541.23
388.09	3391.44
388.28	3520.17
388.48	3510.80
388.67	3843.16
388.86	4299.56
389.06	4505.53
389.25	4734.90
389.45	4971.30
389.64	4812.14
389.84	4709.16
390.03	4643.62
390.22	4734.90
390.42	4772.35
390.61	5273.23
390.81	5518.98
391.00	5544.73
391.19	5687.50
391.39	5390.25
391.58	5102.37
391.78	4713.84
391.97	4580.43
392.16	4381.48
392.36	4100.62
392.55	3248.66
392.75	2534.80
392.94	1935.62
393.13	1956.69
393.33	2445.86
393.52	3005.25
393.71	3808.05
393.91	4348.72
394.10	4521.92
394.29	4980.66
394.49	5453.45
394.68	5818.57
394.88	6076.03
395.07	6310.08
395.26	6134.54
395.46	6017.52
395.65	5699.20
395.84	4863.63
396.04	4051.47
396.23	3384.41
396.42	2743.11
396.62	2644.81
396.81	3009.93
397.00	3997.64
397.19	4905.76
397.39	6017.52
397.58	6607.33
397.77	7356.30
397.97	7424.18
398.16	7492.05
398.35	7857.18
398.55	7908.67
398.74	8360.39
398.93	8451.67
399.12	8542.96
399.32	8002.29
399.51	8269.11
399.70	8791.05
399.90	8578.06
400.09	8844.88
400.28	8531.25
400.47	8734.88
400.67	8968.93
400.86	9336.40
401.05	9406.61
401.24	9495.55
401.44	9533.00
401.63	9540.02
401.82	9848.97
402.01	9600.88
402.21	9682.80
402.40	9858.34
402.59	9359.80
402.78	8966.59
402.97	8791.05
403.17	9114.05
403.36	9703.86
403.55	10015.15
403.74	10448.15
403.93	9877.06
404.13	9011.06
404.32	8877.65
404.51	9205.33
404.70	10139.20
404.89	10043.24
405.09	10097.07
405.28	9415.98
405.47	9334.06
405.66	9502.58
405.85	9434.70
406.05	9137.45
406.24	8952.55
406.43	9710.88
406.62	10087.71
406.81	10012.81
407.00	9521.30
407.20	9322.35
407.39	9577.47
407.58	10008.13
407.77	10293.68
407.96	10700.93
408.15	10841.36
408.34	11101.16
408.54	11297.77
408.73	11470.97
408.92	11269.68
409.11	11002.86
409.30	10565.18
409.49	9610.24
409.68	9139.79
409.87	8901.06
410.07	9738.97
410.26	10047.92
410.45	10679.86
410.64	11016.90
410.83	11342.24
411.02	11660.55
411.21	12418.88
411.40	12060.78
411.59	11990.56
411.78	11997.59
411.98	11910.99
412.17	12065.46
412.36	11712.04
412.55	11943.75
412.74	11625.44
412.93	11279.04
413.12	11487.35
413.31	12685.70
413.50	12704.43
413.69	12945.50
413.88	12439.95
414.07	12107.59
414.26	12224.62
414.45	12575.70
414.64	12353.35
414.83	12580.38
415.02	12222.28
415.22	12369.73
415.41	12582.72
415.60	13156.15
415.79	13832.57
415.98	13769.37
416.17	13921.51
416.36	13497.87
416.55	13481.49
416.74	12952.52
416.93	12386.12
417.12	12287.81
417.31	12706.77
417.50	13043.81
417.69	13364.46
417.88	13277.86
418.07	13074.23
418.26	13034.44
418.45	12716.13
418.64	13631.28
418.83	14207.05
419.02	14143.86
419.21	13467.44
419.39	12961.89
419.58	12428.24
419.77	12697.41
419.96	13195.94
420.15	13862.99
420.34	14270.25
420.53	14595.58
420.72	15232.21
420.91	15147.95
421.10	14813.25
421.29	14448.13
421.48	13961.30
421.67	15218.16
421.86	14721.97
422.05	13523.62
422.24	11939.07
422.43	11892.26
422.61	12952.52
422.80	14146.20
422.99	14244.50
423.18	13736.60
423.37	13516.59
423.56	13673.41
423.75	13610.22
423.94	14012.79
424.13	13345.73
424.32	13458.08
424.50	13521.27
424.69	13275.52
424.88	13415.95
425.07	13476.80
425.26	13259.13
425.45	13184.24
425.64	12643.57
425.83	12709.11
426.01	13434.68
426.20	13987.04
426.39	13914.48
426.58	12760.60
426.77	11815.02
426.96	11644.17
427.15	11999.93
427.33	12819.11
427.52	13472.12
427.71	13476.80
427.90	13352.76
428.09	13081.25
428.28	13057.85
428.46	12610.81
428.65	12498.46
428.84	12755.92
429.03	13025.08
429.22	12173.13
429.40	11683.95
429.59	10532.41
429.78	9221.71
429.97	9343.42
430.16	9252.14
430.34	9713.22
430.53	9516.62
430.72	9703.86
430.91	10616.67
431.10	12475.06
431.28	14740.69
431.47	15784.57
431.66	16119.27
431.85	14560.47
432.03	13582.13
432.22	12994.65
432.41	13476.80
432.60	14679.84
432.79	15627.76
432.97	16030.33
433.16	15702.65
433.35	14059.60
433.54	12741.88
433.72	12053.76
433.91	12266.75
434.10	13778.73
434.28	14864.74
434.47	15702.65
434.66	15421.79
434.85	14883.47
435.03	14902.19
435.22	15131.56
435.41	16465.67
435.59	16606.10
435.78	16395.45
435.97	16994.63
436.16	16893.99
436.34	16868.24
436.53	16442.26
436.72	16287.79
436.90	15400.72
437.09	15325.83
437.28	14970.07
437.46	15571.58
437.65	15999.90
437.84	14829.63
438.02	13600.85
438.21	13516.59
438.40	14122.79
438.58	15445.20
438.77	15569.24
438.96	15976.50
439.14	16606.10
439.33	17118.68
439.52	17116.34
439.70	16671.64
439.89	16507.80
440.08	15927.35
440.26	15875.85
440.45	16671.64
440.63	17362.09
440.82	18548.75
441.01	18221.07
441.19	18265.54
441.38	18611.94
441.57	19108.13
441.75	19473.26
441.94	19386.66
442.12	19166.65
442.31	19491.98
442.50	19566.88
442.68	19613.69
442.87	19138.56
443.05	18911.53
443.24	19033.24
443.43	19653.48
443.61	19779.87
443.80	20294.79
443.98	19145.58
444.17	18930.25
444.35	20063.07
444.54	20271.38
444.73	20346.28
444.91	19356.23
445.10	18750.03
445.28	18036.17
445.47	17387.84
445.65	17668.70
445.84	18267.88
446.02	19061.32
446.21	19178.35
446.39	19302.40
446.58	19700.29
446.77	19751.78
446.95	19936.68
447.14	20556.93
447.32	20861.19
447.51	20486.71
447.69	19543.47
447.88	19489.64
448.06	19646.46
448.25	20308.83
448.43	20575.65
448.62	19878.17
448.80	19552.84
448.99	19875.83
449.17	20201.16
449.36	19943.70
449.54	20879.92
449.73	21343.35
449.91	21383.13
450.10	21893.37
450.28	22443.40
450.46	22003.38
450.65	22221.05
450.83	22075.93
451.02	21528.25
451.20	21303.56
451.39	21383.13
451.57	21123.33
451.76	21343.35
451.94	21254.40
452.13	20662.25
452.31	20039.67
452.49	19136.22
452.68	19250.91
452.86	19115.16
453.05	19639.44
453.23	19974.13
453.42	20533.52
453.60	21387.82
453.78	21355.05
453.97	20823.75
454.15	21254.40
454.34	20460.96
454.52	20776.94
454.70	20259.68
454.89	20666.93
455.07	20240.95
455.26	20648.21
455.44	21692.08
455.62	21853.58
455.81	22277.22
455.99	21986.99
456.17	21518.89
456.36	21867.63
456.54	22260.84
456.73	22539.36
456.91	22661.07
457.09	23056.62
457.28	23302.37
457.46	22611.92
457.64	22333.39
457.83	21523.57
458.01	20968.86
458.19	21486.12
458.38	21909.75
458.56	22518.29
458.74	22267.86
458.93	22115.72
459.11	21593.78
459.29	21930.82
459.48	21886.35
459.66	21556.33
459.84	22118.06
460.03	22288.92
460.21	22228.07
460.39	23080.02
460.57	22991.08
460.76	23145.56
460.94	23145.56
461.12	22977.04
461.31	22876.40
461.49	22918.53
461.67	22689.15
461.85	23295.35
462.04	23325.78
462.22	24266.67
462.40	23885.17
462.59	23608.98
462.77	23489.62
462.95	23498.98
463.13	23419.40
463.32	23117.47
463.50	22881.08
463.68	22586.17
463.86	22789.80
464.05	22492.55
464.23	22118.06
464.41	22003.38
464.59	21633.57
464.78	23009.81
464.96	22625.96
465.14	22462.12
465.32	23211.09
465.50	23562.17
465.69	24144.97
465.87	23569.19
466.05	22845.97
466.23	21673.36
466.41	21135.04
466.60	21628.89
466.78	22106.36
466.96	22204.66
467.14	22672.77
467.32	23175.98
467.51	23044.91
467.69	21991.67
467.87	22579.15
468.05	22780.43
468.23	22820.22
468.41	22532.34
468.60	23068.32
468.78	22946.61
468.96	22717.24
469.14	23178.33
469.32	23445.15
469.50	22118.06
469.69	22560.42
469.87	22279.56
470.05	21951.88
470.23	22263.18
470.41	22429.35
470.59	22537.02
470.77	22754.69
470.95	23199.39
471.14	23260.24
471.32	23407.70
471.50	24657.54
471.68	24879.89
471.86	24999.26
472.04	24856.49
472.22	24952.45
472.40	23800.91
472.58	23480.25
472.77	23548.13
472.95	23838.36
473.13	24343.91
473.31	24020.92
473.49	23981.13
473.67	24088.79
473.85	24498.39
474.03	25453.33
474.21	25369.07
474.39	25586.74
474.57	25844.20
474.75	25549.29
474.93	25624.18
475.12	25095.22
475.30	25032.03
475.48	24978.20
475.66	25355.02
475.84	25369.07
476.02	24858.83
476.20	24666.91
476.38	25146.72
476.56	25783.34
476.74	26686.79
476.92	26590.83
477.10	26574.44
477.28	27716.62
477.46	27592.58
477.64	27917.91
477.82	27761.09
478.00	28308.78
478.18	27538.74
478.36	27461.51
478.54	27395.97
478.72	27571.51
478.90	28297.08
479.08	29369.04
479.26	29535.22
479.44	29483.73
479.62	28996.90
479.80	28912.64
479.98	29397.13
480.16	29528.20
480.34	29551.60
480.52	29832.47
480.70	29745.87
480.88	30258.45
481.06	30775.70
481.24	30525.27
481.41	31292.96
481.59	31920.23
481.77	31529.36
481.95	30888.05
482.13	30965.29
482.31	30782.73
482.49	31440.42
482.67	31412.33
482.85	31590.21
483.03	31840.65
483.21	32484.30
483.39	32142.58
483.57	31840.65
483.74	31501.27
483.92	32147.26
484.10	32245.56
484.28	32823.67
484.46	33434.55
484.64	33298.80
484.82	32435.14
485.00	32294.71
485.18	31789.16
485.35	30988.69
485.53	28596.67
485.71	25965.90
485.89	25284.81
486.07	26492.52
486.25	28917.32
486.43	31161.89
486.61	32002.14
486.78	31332.75
486.96	31784.48
487.14	33013.26
487.32	33935.43
487.50	34883.34
487.68	35510.61
487.85	36025.53
488.03	36180.00
488.21	35732.96
488.39	34972.28
488.57	33905.00
488.75	33944.79
488.92	34960.58
489.10	37326.86
489.28	38494.79
489.46	39524.63
489.64	39421.64
489.81	39487.18
489.99	39173.55
490.17	39227.38
490.35	39636.97
490.53	39072.90
490.70	38459.68
490.88	38330.95
491.06	39992.73
491.24	39304.62
491.41	38600.12
491.59	36573.21
491.77	35512.95
491.95	36844.71
492.13	38237.33
492.30	39728.25
492.48	40957.03
492.66	41773.88
492.84	41453.23
493.01	41216.83
493.19	40233.81
493.37	40271.26
493.54	39835.92
493.72	40378.92
493.90	41944.74
494.08	43147.78
494.25	43430.98
494.43	43433.32
494.61	44313.36
494.79	44423.37
494.96	43915.47
495.14	43456.73
495.32	41790.27
495.49	41027.25
495.67	42293.48
495.85	44006.75
496.02	45167.66
496.20	44734.66
496.38	43803.13
496.55	43768.02
496.73	44538.05
496.91	44790.83
497.09	45879.18
497.26	45785.56
497.44	44755.72
497.62	44460.82
497.79	43777.38
497.97	41495.36
498.14	41687.28
498.32	43182.88
498.50	44636.36
498.67	45205.11
498.85	45022.54
499.03	45799.60
499.20	45801.94
499.38	45844.07
499.56	45081.06
499.73	44935.95
499.91	44360.17
500.08	43721.21
500.26	42288.80
500.44	43522.26
500.61	43981.01
500.79	43779.72
500.97	43749.29
501.14	42995.64
501.32	43428.64
501.49	43194.59
501.67	43564.39
501.84	44346.13
502.02	44699.55
502.20	45177.02
502.37	44863.39
502.55	45050.63
502.72	46356.65
502.90	46754.54
503.07	46490.06
503.25	45776.20
503.43	44194.00
503.60	43576.09
503.78	42501.79
503.95	43304.59
504.13	45106.80
504.30	46595.38
504.48	46260.69
504.65	45778.54
504.83	46169.41
505.01	46459.63
505.18	46902.00
505.36	47852.25
505.53	47997.37
505.71	48531.01
505.88	48563.78
506.06	47594.79
506.23	47327.97
506.41	46848.16
506.58	47009.66
506.76	46976.89
506.93	46658.58
507.11	46328.56
507.28	46660.92
507.46	46017.27
507.63	45272.98
507.81	44765.09
507.98	44940.63
508.16	46361.33
508.33	46951.15
508.50	47894.38
508.68	48030.13
508.85	48645.69
509.03	48399.94
509.20	48292.27
509.38	47267.12
509.55	46141.32
509.73	46183.45
509.90	47770.33
510.08	47620.54
510.25	47171.16
510.42	47353.72
510.60	47459.04
510.77	47847.57
510.95	48561.44
511.12	48406.96
511.30	48835.28
511.47	49378.28
511.64	48912.52
511.82	48722.93
511.99	47232.01
512.17	47068.17
512.34	46216.22
512.51	46476.02
512.69	46829.44
512.86	46988.60
513.04	48137.80
513.21	47863.96
513.38	47187.54
513.56	46576.66
513.73	45752.79
513.90	45682.58
514.08	45844.07
514.25	46700.71
514.43	46607.09
514.60	47199.24
514.77	47152.43
514.95	47346.70
515.12	47206.26
515.29	47400.53
515.47	48067.58
515.64	48460.79
515.81	47791.40
515.99	47201.58
516.16	45420.44
516.33	41879.21
516.51	39878.05
516.68	39077.58
516.85	38305.21
517.03	39023.75
517.20	42237.31
517.37	45750.45
517.54	47334.99
517.72	46960.51
517.89	42986.28
518.06	39889.75
518.24	39826.56
518.41	43414.60
518.58	45284.68
518.75	45308.09
518.93	45766.84
519.10	45492.99
519.27	46534.53
519.45	46260.69
519.62	47292.86
519.79	48121.41
519.96	48002.05
520.14	47625.22
520.31	45748.11
520.48	45806.62
520.65	46576.66
520.83	47826.51
521.00	48311.00
521.17	47917.79
521.34	47805.44
521.52	48392.92
521.69	48474.84
521.86	49247.21
522.03	48566.12
522.20	47136.05
522.38	45317.45
522.55	45251.92
522.72	46340.27
522.89	46686.67
523.07	47433.30
523.24	47243.71
523.41	48491.22
523.58	49209.76
523.75	49860.43
523.92	49401.69
524.10	49600.63
524.27	49450.84
524.44	49008.48
524.61	48823.58
524.78	48594.20
524.96	48397.60
525.13	48823.58
525.30	48697.19
525.47	49354.88
525.64	49432.11
525.81	48657.40
525.98	46323.88
526.16	44261.87
526.33	43201.61
526.50	42492.43
526.67	42351.99
526.84	43386.51
527.01	44224.42
527.18	45787.90
527.36	47384.15
527.53	48383.55
527.70	48802.51
527.87	47971.62
528.04	47178.18
528.21	48535.69
528.38	49186.36
528.55	49712.98
528.72	50136.62
528.89	50185.77
529.07	49785.54
529.24	48964.01
529.41	47899.06
529.58	47056.47
529.75	47344.36
529.92	48252.48
530.09	48500.58
530.26	49270.62
530.43	49436.80
530.60	49743.41
530.77	49860.43
530.94	50373.01
531.11	49675.53
531.28	49209.76
531.46	48828.26
531.63	48886.77
531.80	49074.01
531.97	48154.18
532.14	47143.07
532.31	45591.30
532.48	45191.06
532.65	44828.28
532.82	45698.96
532.99	47861.61
533.16	48168.22
533.33	48858.68
533.50	48657.40
533.67	47618.20
533.84	47185.20
534.01	47428.62
534.18	47931.83
534.35	48069.92
534.52	48062.90
534.69	48346.11
534.86	48697.19
535.03	49474.24
535.20	49605.31
535.37	50363.65
535.54	50497.06
535.71	49769.15
535.88	49549.14
536.05	48147.16
536.22	47522.24
536.38	47480.11
536.55	46628.15
536.72	46047.70
536.89	45823.01
537.06	46845.82
537.23	48886.77
537.40	48690.16
537.57	48645.69
537.74	48294.61
537.91	48701.87
538.08	48439.73
538.25	47962.26
538.42	48823.58
538.59	48196.31
538.75	47381.80
538.92	47009.66
539.09	46660.92
539.26	46464.32
539.43	46342.61
539.60	46211.54
539.77	46827.10
539.94	46838.80
540.11	45764.49
540.28	44729.98
540.44	44839.98
540.61	44905.52
540.78	45689.60
540.95	46169.41
541.12	46703.05
541.29	47058.81
541.46	48020.77
541.62	47782.04
541.79	47604.16
541.96	46604.75
542.13	46761.56
542.30	46983.91
542.47	47538.62
542.63	47014.34
542.80	46813.05
542.97	46784.97
543.14	46770.93
543.31	46426.87
543.48	47126.69
543.64	48727.61
543.81	49013.16
543.98	48460.79
544.15	47849.91
544.32	46817.74
544.48	46822.42
544.65	47782.04
544.82	48233.76
544.99	47765.65
545.16	47367.76
545.32	46887.95
545.49	47988.00
545.66	48325.04
545.83	48179.93
546.00	47615.86
546.16	46873.91
546.33	47037.75
546.50	47262.44
546.67	47526.92
546.83	47107.96
547.00	47309.25
547.17	46124.94
547.34	45116.17
547.50	45230.85
547.67	46251.33
547.84	45930.67
548.00	46527.51
548.17	46803.69
548.34	47040.09
548.51	47208.61
548.67	46808.37
548.84	47590.11
549.01	47475.43
549.18	47154.77
549.34	46927.74
549.51	46887.95
549.68	46834.12
549.84	46218.56
550.01	46408.14
550.18	46227.92
550.34	46010.25
550.51	46923.06
550.68	46794.33
550.84	45808.96
551.01	46089.83
551.18	45766.84
551.34	46153.02
551.51	46663.26
551.68	47309.25
551.84	46813.05
552.01	47058.81
552.18	46747.52
552.34	45553.85
552.51	44832.96
552.68	44751.04
552.84	45408.73
553.01	46267.71
553.18	45771.52
553.34	46036.00
553.51	46401.12
553.67	46204.52
553.84	46885.61
554.01	46564.96
554.17	46344.95
554.34	46494.74
554.51	46539.21
554.67	46609.43
554.84	46728.80
555.00	46218.56
555.17	45666.19
555.33	45914.29
555.50	45652.15
555.67	45801.94
555.83	45806.62
556.00	45102.12
556.16	45155.96
556.33	44746.36
556.50	44374.22
556.66	45001.48
556.83	44275.91
556.99	44210.38
557.16	44123.78
557.32	44804.88
557.49	45289.37
557.65	44563.80
557.82	45088.08
557.98	44369.54
558.15	43817.17
558.32	43028.41
558.48	42117.94
558.65	42101.56
558.81	42719.46
558.98	43161.82
559.14	43353.74
559.31	43428.64
559.47	43777.38
559.64	42707.76
559.80	42422.21
559.97	42649.24
560.13	43510.56
560.30	44774.45
560.46	45244.90
560.63	45925.99
560.79	45881.52
560.96	45151.27
561.12	43438.00
561.29	42452.64
561.45	42284.12
561.61	43405.23
561.78	43707.16
561.94	43494.18
562.11	43669.72
562.27	43337.36
562.44	43571.41
562.60	44222.08
562.77	44641.04
562.93	44357.83
563.10	44360.17
563.26	43182.88
563.42	43281.19
563.59	43033.09
563.75	43091.60
563.92	42803.72
564.08	43037.77
564.24	44039.52
564.41	43407.58
564.57	43557.37
564.74	43253.10
564.90	42953.51
565.07	42637.54
565.23	42487.74
565.39	41422.80
565.56	41254.28
565.72	40830.65
565.88	41399.40
566.05	41558.55
566.21	42040.70
566.38	42220.92
566.54	42459.66
566.70	42628.18
566.87	43402.89
567.03	42810.74
567.19	42885.64
567.36	42574.34
567.52	42733.50
567.68	42000.91
567.85	41801.97
568.01	40971.08
568.17	40542.76
568.34	40289.98
568.50	40182.32
568.66	41289.39
568.83	41624.09
568.99	41455.57
569.15	41511.74
569.32	41567.91
569.48	41188.75
569.64	40910.22
569.81	40545.10
569.97	40418.71
570.13	40680.85
570.30	39426.32
570.46	39569.10
570.62	38466.70
570.78	38513.52
570.95	39159.50
571.11	39885.07
571.27	40245.51
571.43	40072.31
571.60	40617.66
571.76	40851.71
571.92	41375.99
572.09	41483.66
572.25	41504.72
572.41	41148.96
572.57	41134.92
572.74	41425.14
572.90	40432.75
573.06	40713.62
573.22	40769.79
573.38	40882.14
573.55	40720.64
573.71	40849.37
573.87	40531.06
574.03	40212.74
574.20	40500.63
574.36	40030.18
574.52	39571.44
574.68	39604.20
574.84	38756.93
575.01	38483.09
575.17	38747.57
575.33	38485.43
575.49	38820.13
575.65	39115.03
575.82	39321.00
575.98	38602.46
576.14	39185.25
576.30	39728.25
576.46	39693.15
576.62	39541.01
576.79	39639.31
576.95	39021.41
577.11	38937.15
577.27	39236.74
577.43	38944.17
577.59	38930.13
577.75	38614.16
577.92	37661.56
578.08	37773.91
578.24	37312.82
578.40	37839.44
578.56	38000.94
578.72	38295.85
578.88	38431.60
579.04	38281.80
579.21	38618.84
579.37	38707.78
579.53	39248.44
579.69	38703.10
579.85	39056.52
580.01	38923.11
580.17	38352.02
580.33	38232.65
580.49	38794.38
580.65	38497.13
580.82	38520.54
580.98	38572.03
581.14	38932.47
581.30	38789.70
581.46	39068.22
581.62	39096.31
581.78	38565.01
581.94	38892.68
582.10	39124.40
582.26	39328.02
582.42	38902.04
582.58	39124.40
582.74	38813.10
582.90	39147.80
583.06	39035.45
583.22	39218.02
583.38	38368.40
583.54	38649.27
583.70	38487.77
583.86	38525.22
584.02	38150.73
584.18	38583.73
584.34	38174.14
584.50	37986.89
584.66	37926.04
584.82	37603.05
584.98	37638.15
585.14	37397.08
585.30	35936.59
585.46	35943.61
585.62	36027.87
585.78	36842.37
585.94	36308.73
586.10	36545.12
586.26	37111.53
586.42	37308.14
586.58	37865.19
586.74	37722.41
586.90	37233.24
587.06	37095.15
587.22	37368.99
587.38	36678.54
587.54	36842.37
587.70	36671.51
587.86	36114.47
588.02	35662.74
588.18	35763.39
588.34	34426.94
588.49	32720.69
588.65	31456.80
588.81	30534.63
588.97	31129.12
589.13	31075.29
589.29	30536.97
589.45	31777.45
589.61	32086.40
589.77	33603.07
589.93	34440.98
590.08	34883.34
590.24	35435.71
590.40	35433.37
590.56	35580.82
590.72	35227.40
590.88	34881.00
591.04	34780.36
591.20	34630.57
591.35	34419.92
591.51	34644.61
591.67	34572.05
591.83	34546.31
591.99	34871.64
592.15	34988.67
592.31	34976.97
592.46	35009.73
592.62	34387.15
592.78	34323.96
592.94	34396.51
593.10	34558.01
593.26	35384.22
593.41	34953.56
593.57	34897.39
593.73	34335.66
593.89	33947.13
594.05	33490.73
594.20	33376.04
594.36	33308.16
594.52	33090.49
594.68	33069.43
594.84	33191.14
594.99	33820.74
595.15	33537.54
595.31	34129.69
595.47	33827.76
595.62	34057.14
595.78	34464.39
595.94	34735.89
596.10	34410.56
596.25	34010.32
596.41	33750.52
596.57	33942.45
596.73	33841.81
596.88	33923.72
597.04	34188.21
597.20	33399.44
597.36	33457.96
597.51	33507.11
597.67	33530.51
597.83	33727.12
597.99	33364.34
598.14	33118.58
598.30	32807.29
598.46	32804.95
598.61	32797.93
598.77	33228.59
598.93	33200.50
599.09	33432.21
599.24	33645.20
599.40	33661.58
599.56	33050.70
599.71	33708.40
599.87	33195.82
600.03	32826.01
600.18	33179.43
600.34	32453.87
600.50	32687.92
600.65	32371.95
600.81	32151.94
600.97	32694.94
601.12	32177.68
601.28	32746.44
601.44	32343.86
601.59	31962.36
601.75	32313.44
601.91	31885.12
602.06	31967.04
602.22	32121.51
602.37	32301.73
602.53	32250.24
602.69	32606.00
602.84	32884.53
603.00	32741.75
603.16	33043.68
603.31	33111.56
603.47	32959.42
603.62	32741.75
603.78	32704.31
603.94	32591.96
604.09	32348.54
604.25	32547.49
604.40	32460.89
604.56	32343.86
604.71	32388.33
604.87	32275.99
605.03	32217.47
605.18	32245.56
605.34	31962.36
605.49	32212.79
605.65	31807.88
605.80	32088.74
605.96	32013.85
606.12	32037.25
606.27	31864.05
606.43	31512.97
606.58	32072.36
606.74	31842.99
606.89	32371.95
607.05	32037.25
607.20	31915.54
607.36	31023.80
607.51	31215.72
607.67	30993.37
607.82	30944.22
607.98	31047.21
608.13	31054.23
608.29	30972.31
608.44	30672.72
608.60	30319.30
608.75	30656.34
608.91	30543.99
609.06	30462.07
609.22	30906.77
609.37	30773.36
609.53	30895.07
609.68	30103.97
609.84	29947.15
609.99	29626.50
610.15	29633.52
610.30	30380.15
610.46	30522.93
610.61	30529.95
610.76	30909.11
610.92	31335.09
611.07	30934.86
611.23	31157.21
611.38	31131.47
611.54	30707.83
611.69	30064.18
611.84	30019.71
612.00	29390.11
612.15	29750.55
612.31	29514.16
612.46	29755.23
612.62	29799.70
612.77	29820.77
612.92	30195.25
613.08	29284.78
613.23	29134.99
613.39	28273.67
613.54	27950.68
613.69	28905.62
613.85	28856.46
614.00	28774.55
614.15	29163.08
614.31	28865.83
614.46	28673.90
614.62	28655.18
614.77	28999.24
614.92	28940.72
615.08	28961.79
615.23	28954.77
615.38	28591.98
615.54	27618.32
615.69	27262.56
615.84	27016.80
616.00	26370.82
616.15	26778.07
616.30	26981.70
616.46	27103.40
616.61	27166.60
616.76	27173.62
616.92	27531.72
617.07	27435.76
617.22	27976.42
617.37	28020.89
617.53	28189.41
617.68	27854.72
617.83	27971.74
617.99	28093.45
618.14	28252.61
618.29	28229.20
618.45	27569.17
618.60	27683.86
618.75	27431.08
618.90	26974.67
619.06	27496.61
619.21	27543.42
619.36	28091.11
619.51	27676.83
619.67	27171.28
619.82	27225.11
619.97	27470.87
620.12	27653.43
620.28	27597.26
620.43	27728.33
620.58	27807.90
620.73	27372.57
620.89	27419.38
621.04	27002.76
621.19	27129.15
621.34	26630.62
621.49	26771.05
621.65	26312.30
621.80	26705.51
621.95	26501.89
622.10	26637.64
622.25	26607.21
622.41	26534.65
622.56	26368.48
622.71	25968.24
622.86	25881.64
623.01	26300.60
623.16	25858.24
623.32	26331.03
623.47	25944.84
623.62	25907.39
623.77	25907.39
623.92	25376.09
624.07	25369.07
624.23	24931.39
624.38	25071.82
624.53	25397.15
624.68	25202.89
624.83	24922.02
624.98	24985.22
625.13	24802.66
625.29	24566.26
625.44	24725.42
625.59	24507.75
625.74	25053.09
625.89	25198.21
626.04	24922.02
626.19	24950.11
626.34	24919.68
626.49	24783.93
626.65	24807.34
626.80	24856.49
626.95	24971.18
627.10	25053.09
627.25	24308.80
627.40	23379.61
627.55	23154.92
627.70	22740.64
627.85	23145.56
628.00	23080.02
628.15	23690.90
628.30	24027.94
628.45	23847.72
628.60	23770.48
628.76	23857.08
628.91	23840.70
629.06	23590.26
629.21	23672.18
629.36	23328.12
629.51	23367.91
629.66	23185.35
629.81	22946.61
629.96	22773.41
630.11	23201.73
630.26	23412.38
630.41	23730.69
630.56	23765.80
630.71	23726.01
630.86	23370.25
631.01	23089.38
631.16	22883.42
631.31	22562.76
631.46	22583.83
631.61	22324.03
631.76	23157.26
631.91	22883.42
632.06	23271.95
632.21	23388.97
632.36	23489.62
632.51	22911.50
632.66	23461.53
632.81	23126.83
632.96	22988.74
633.10	23150.24
633.25	22588.51
633.40	22874.06
633.55	22780.43
633.70	22707.88
633.85	22920.87
634.00	22707.88
634.15	22960.66
634.30	22803.84
634.45	22525.32
634.60	22799.16
634.75	22438.72
634.90	22862.35
635.05	22719.58
635.19	22707.88
635.34	22122.74
635.49	22581.49
635.64	22199.98
635.79	22190.62
635.94	22242.11
636.09	22342.75
636.24	22211.68
636.39	22300.62
636.53	21998.70
636.68	22452.76
636.83	22211.68
636.98	22483.19
637.13	22284.24
637.28	22867.03
637.43	22717.24
637.57	22082.95
637.72	22443.40
637.87	22155.51
638.02	22185.94
638.17	22682.13
638.32	22356.80
638.46	22207.00
638.61	22361.48
638.76	22001.04
638.91	21954.22
639.06	21951.88
639.20	21579.74
639.35	21584.42
639.50	21102.27
639.65	21509.52
639.80	21397.18
639.94	21591.44
640.09	21427.60
640.24	21532.93
640.39	21451.01
640.54	21085.89
640.68	21036.74
640.83	20795.66
640.98	20819.07
641.13	20388.41
641.27	21231.00
641.42	21013.33
641.57	21130.36
641.72	20741.83
641.86	20374.36
642.01	20676.29
642.16	21397.18
642.31	21259.09
642.45	21462.71
642.60	20957.16
642.75	20702.04
642.90	20781.62
643.04	20587.35
643.19	20690.34
643.34	20788.64
643.48	20503.09
643.63	20306.49
643.78	20650.55
643.93	20886.94
644.07	20589.69
644.22	20912.69
644.37	20381.38
644.51	20629.48
644.66	20460.96
644.81	20285.42
644.95	20425.86
645.10	20044.35
645.25	20189.46
645.39	20051.37
645.54	19819.66
645.69	19786.89
645.83	19496.66
645.98	19452.19
646.13	19414.74
646.27	19623.05
646.42	19520.07
646.57	19442.83
646.71	19669.86
646.86	19300.06
647.00	19342.19
647.15	18967.70
647.30	19199.41
647.44	19098.77
647.59	18934.93
647.74	19131.54
647.88	18707.90
648.03	18775.78
648.17	18981.74
648.32	19264.95
648.47	19255.59
648.61	19211.12
648.76	19021.53
648.90	18572.15
649.05	18146.17
649.20	17661.68
649.34	17575.08
649.49	17731.90
649.63	18054.89
649.78	18654.07
649.92	18579.17
650.07	19131.54
650.21	19030.90
650.36	19098.77
650.51	19101.11
650.65	19344.53
650.80	19185.37
650.94	18930.25
651.09	18857.70
651.23	18501.93
651.38	17977.65
651.52	18024.47
651.67	18148.51
651.81	18192.98
651.96	18462.15
652.10	18326.39
652.25	18387.25
652.39	18562.79
652.54	18188.30
652.68	18492.57
652.83	18349.80
652.97	18333.42
653.12	18576.83
653.26	18448.10
653.41	18366.18
653.55	18422.36
653.70	18347.46
653.84	18288.95
653.99	17940.21
654.13	17666.36
654.27	17486.14
654.42	17371.46
654.56	17165.49
654.71	17731.90
654.85	17673.39
655.00	17191.23
655.14	16826.11
655.29	16517.16
655.43	16259.70
655.57	15871.17
655.72	14813.25
655.86	13511.91
656.01	12917.42
656.15	12999.34
656.30	13703.84
656.44	14672.82
656.58	15213.48
656.73	15822.02
656.87	15983.52
657.01	16112.25
657.16	16704.40
657.30	16933.78
657.45	16809.73
657.59	17256.77
657.73	17277.83
657.88	17050.80
658.02	16961.86
658.16	17106.98
658.31	17214.64
658.45	17191.23
658.60	16898.67
658.74	16844.84
658.88	16596.74
659.03	16739.51
659.17	16575.67
659.31	16851.86
659.46	16952.50
659.60	16753.55
659.74	17071.87
659.89	16968.88
660.03	16901.01
660.17	16964.20
660.32	16823.77
660.46	16702.06
660.60	16709.08
660.74	16641.21
660.89	16924.41
661.03	16643.55
661.17	16795.68
661.32	16847.18
661.46	16793.34
661.60	16734.83
661.74	16666.95
661.89	16802.71
662.03	16603.76
662.17	16510.14
662.31	16617.80
662.46	16477.37
662.60	16526.52
662.74	16285.45
662.88	16283.11
663.03	16072.46
663.17	15712.02
663.31	15854.79
663.45	15943.73
663.60	15955.43
663.74	15889.90
663.88	15976.50
664.02	15885.22
664.17	15880.53
664.31	15847.77
664.45	15632.44
664.59	15925.00
664.73	16058.42
664.88	16077.14
665.02	15915.64
665.16	15847.77
665.30	15934.37
665.44	15702.65
665.59	15653.50
665.73	15840.75
665.87	15370.30
666.01	15274.34
666.15	15330.51
666.29	15190.08
666.44	15061.35
666.58	15269.66
666.72	15239.23
666.86	15613.71
667.00	15548.18
667.14	15220.50
667.28	14803.89
667.43	14883.47
667.57	14988.79
667.71	15047.30
667.85	14934.96
667.99	14956.02
668.13	15199.44
668.27	15049.64
668.41	15091.77
668.56	14993.47
668.70	15007.52
668.84	14890.49
668.98	14808.57
669.12	14677.50
669.26	14689.20
669.40	14677.50
669.54	14614.30
669.68	14745.38
669.82	14555.79
669.96	14448.13
670.10	14422.38
670.25	14452.81
670.39	14373.23
670.53	14015.13
670.67	14178.97
670.81	14347.48
670.95	14003.43
671.09	13884.06
671.23	14120.45
671.37	13673.41
671.51	13923.85
671.65	13844.27
671.79	13771.71
671.93	13984.70
672.07	13687.45
672.21	13818.52
672.35	13682.77
672.49	13877.04
672.63	14132.15
672.77	13472.12
672.91	13619.58
673.05	13785.76
673.19	13762.35
673.33	13633.62
673.47	13495.53
673.61	13490.85
673.75	13542.34
673.89	13481.49
674.03	13385.52
674.17	13235.73
674.31	13502.55
674.45	13191.26
674.59	13336.37
674.73	13006.36
674.87	13020.40
675.01	13177.22
675.15	12996.99
675.29	13123.38
675.43	12917.42
675.56	12706.77
675.70	13067.21
675.84	13025.08
675.98	12741.88
676.12	12987.63
676.26	12809.75
676.40	12772.30
676.54	12870.61
676.68	12564.00
676.82	12376.75
676.96	12411.86
677.10	12627.19
677.23	12713.79
677.37	12432.93
677.51	12507.82
677.65	12449.31
677.79	12210.57
677.93	12264.41
678.07	12135.68
678.21	12035.03
678.34	11943.75
678.48	11592.67
678.62	12006.95
678.76	11992.90
678.90	11999.93
679.04	11712.04
679.18	11740.13
679.31	11482.67
679.45	11726.08
679.59	11716.72
679.73	11573.95
679.87	11557.57
680.00	11463.94
680.14	11522.46
680.28	11492.03
680.42	11384.37
680.56	11204.14
680.70	11157.33
680.83	11138.61
680.97	11293.08
681.11	11241.59
681.25	11108.18
681.39	11056.69
681.52	11080.10
681.66	11007.54
681.80	11063.71
681.94	10892.85
682.07	11143.29
682.21	10956.05
682.35	10839.02
682.49	10705.61
682.62	10684.55
682.76	10565.18
682.90	10501.98
683.04	10576.88
683.17	10466.88
683.31	10532.41
683.45	10319.42
683.59	10281.97
683.72	10122.82
683.86	10068.98
684.00	10068.98
684.13	9977.70
684.27	9977.70
684.41	9989.41
684.55	10050.26
684.68	10050.26
684.82	9858.34
684.96	9785.78
685.09	9991.75
685.23	9699.18
685.37	9675.77
685.50	9621.94
685.64	9666.41
685.78	9598.54
685.91	9701.52
686.05	9507.26
686.19	9348.10
686.32	8760.63
686.46	7864.20
686.60	6834.36
686.73	6485.62
686.87	5865.38
687.01	6024.54
687.14	6195.40
687.28	6340.51
687.42	6504.35
687.55	6993.52
687.69	7382.05
687.82	7440.56
687.96	7817.39
688.10	8016.33
688.23	7655.89
688.37	7609.08
688.50	7438.22
688.64	7377.37
688.78	7262.68
688.91	7346.94
689.05	7243.96
689.18	7208.85
689.32	7279.07
689.46	7220.55
689.59	7070.76
689.73	7424.18
689.86	7269.70
690.00	7243.96
690.13	7372.69
690.27	7300.13
690.41	7229.91
690.54	7410.14
690.68	7246.30
690.81	7555.25
690.95	7398.43
691.08	7454.61
691.22	7403.11
691.35	7431.20
691.49	7461.63
691.62	7243.96
691.76	7597.38
691.89	7499.08
692.03	7403.11
692.16	7295.45
692.30	7316.51
692.43	7133.95
692.57	7131.61
692.70	7080.12
692.84	7028.63
692.97	7054.37
693.11	6923.30
693.24	7157.36
693.38	6946.71
693.51	6806.28
693.65	6686.91
693.78	6696.27
693.92	6670.53
694.05	6745.42
694.19	6675.21
694.32	6775.85
694.45	6691.59
694.59	6729.04
694.72	6654.14
694.86	6848.41
694.99	6621.38
695.13	6691.59
695.26	6516.05
695.39	6567.54
695.53	6647.12
695.66	6396.68
695.80	6443.49
695.93	6232.85
696.07	6569.88
696.20	6637.76
696.33	6574.56
696.47	6654.14
696.60	6747.76
696.73	6705.63
696.87	6600.31
697.00	6782.87
697.14	6672.87
697.27	6349.87
697.40	6448.18
697.54	6202.42
697.67	6099.44
697.80	6174.33
697.94	6064.33
698.07	6134.54
698.21	6031.56
698.34	5977.73
698.47	5865.38
698.61	5865.38
698.74	5898.15
698.87	5830.27
699.01	5830.27
699.14	5837.30
699.27	5949.64
699.40	5982.41
699.54	5760.06
699.67	5497.92
699.80	5713.25
699.94	5643.03
700.07	5579.84
700.20	5476.85
700.34	5406.64
700.47	5188.97
700.60	5327.06
700.73	5252.16
700.87	5383.23
701.00	5301.31
701.13	5303.65
701.26	5270.89
701.40	5277.91
701.53	5085.98
701.66	5280.25
701.79	5177.26
701.93	5184.29
702.06	5221.74
702.19	5181.95
702.32	5130.45
702.46	5071.94
702.59	4856.61
702.72	5020.45
702.85	5153.86
702.99	4952.57
703.12	4978.32
703.25	5085.98
703.38	5043.85
703.51	4968.96
703.65	4910.44
703.78	4809.80
703.91	4894.06
704.04	4919.81
704.17	4926.83
704.31	4940.87
704.44	4975.98
704.57	4840.23
704.70	4861.29
704.83	4880.02
704.96	4755.97
705.10	4720.86
705.23	4685.75
>>>>>End Processed Spectral Data<<<<<
