SpectraSuite Data File
++++++++++++++++++++++++++++++++++++
Date: Mon Oct 07 14:55:45 GMT-05:00 2013
User: price-jones
Dark Spectrum Present: No
Reference Spectrum Present: No
Number of Sampled Component Spectra: 1
Spectrometers: USB2+H05261
Integration Time (usec): 1000000 (USB2+H05261)
Spectra Averaged: 1 (USB2+H05261)
Boxcar Smoothing: 0 (USB2+H05261)
Correct for Electrical Dark: No (USB2+H05261)
Strobe/Lamp Enabled: No (USB2+H05261)
Correct for Detector Non-linearity: No (USB2+H05261)
Correct for Stray Light: No (USB2+H05261)
Number of Pixels in Processed Spectrum: 2048
>>>>>Begin Processed Spectral Data<<<<<
365.73	0.00
365.92	0.00
366.12	0.00
366.32	0.00
366.52	0.00
366.72	124.05
366.91	0.00
367.11	173.20
367.31	53.83
367.51	128.73
367.70	173.20
367.90	510.24
368.10	184.90
368.30	198.95
368.49	0.00
368.69	355.76
368.89	210.65
369.09	0.00
369.28	203.63
369.48	0.00
369.68	79.58
369.87	184.90
370.07	53.83
370.27	489.17
370.47	1207.72
370.66	3489.74
370.86	4313.61
371.06	4746.61
371.25	5053.22
371.45	3782.31
371.65	3826.78
371.84	3459.31
372.04	3550.59
372.24	4016.36
372.44	4042.11
372.63	4126.36
372.83	4093.60
373.03	3248.66
373.22	2986.52
373.42	3304.84
373.62	3801.03
373.81	4044.45
374.01	4154.45
374.21	3899.33
374.40	3227.60
374.60	3906.35
374.79	3929.76
374.99	4554.68
375.19	4861.29
375.38	4861.29
375.58	4428.29
375.78	4692.77
375.97	4643.62
376.17	5177.26
376.37	4613.20
376.56	4901.08
376.76	4884.70
376.95	5125.77
377.15	5853.68
377.35	5921.56
377.54	6190.72
377.74	5905.17
377.93	5867.72
378.13	5886.45
378.33	5767.08
378.52	5221.74
378.72	5359.83
378.91	5174.92
379.11	4739.58
379.31	4599.15
379.50	4507.87
379.70	5238.12
379.89	5678.14
380.09	5521.32
380.28	5858.36
380.48	5813.89
380.68	5750.70
380.87	5331.74
381.07	5132.79
381.26	5224.08
381.46	4699.80
381.65	4526.60
381.85	4383.82
382.04	4306.59
382.24	3995.29
382.43	3660.60
382.63	3400.80
382.83	3658.26
383.02	4053.81
383.22	4224.67
383.41	3550.59
383.61	3997.64
383.80	4858.95
384.00	5097.69
384.19	5441.75
384.39	5884.11
384.58	5750.70
384.78	5823.25
384.97	5708.57
385.17	5203.01
385.36	4882.36
385.56	5109.39
385.75	5006.41
385.95	5455.79
386.14	5956.66
386.34	5760.06
386.53	5671.12
386.72	5167.90
386.92	5614.95
387.11	5750.70
387.31	5933.26
387.50	5521.32
387.70	5427.70
387.89	5540.05
388.09	5451.11
388.28	5266.21
388.48	5462.81
388.67	6204.76
388.86	6487.96
389.06	6946.71
389.25	7377.37
389.45	7272.04
389.64	7351.62
389.84	7459.29
390.03	7236.94
390.22	7255.66
390.42	7400.77
390.61	7550.57
390.81	8105.28
391.00	8379.12
391.19	8360.39
391.39	7866.54
391.58	7522.48
391.78	7096.50
391.97	7007.56
392.16	6155.61
392.36	6071.35
392.55	4983.00
392.75	3826.78
392.94	3215.90
393.13	3676.98
393.33	3913.38
393.52	4973.64
393.71	6253.91
393.91	6483.28
394.10	6843.73
394.29	7286.09
394.49	7939.10
394.68	8542.96
394.88	8842.54
395.07	9069.58
395.26	8905.74
395.46	8409.54
395.65	8212.94
395.84	6977.14
396.04	6616.69
396.23	5109.39
396.42	4301.90
396.62	4458.72
396.81	5001.72
397.00	6221.14
397.19	7679.30
397.39	8779.35
397.58	9783.44
397.77	10122.82
397.97	10583.90
398.16	10647.10
398.35	11201.80
398.55	10853.06
398.74	11489.69
398.93	12053.76
399.12	11494.37
399.32	11492.03
399.51	11515.44
399.70	12414.20
399.90	12343.99
400.09	12063.12
400.28	12367.39
400.47	12212.92
400.67	12964.23
400.86	12858.90
401.05	13287.22
401.24	13336.37
401.44	13481.49
401.63	13591.49
401.82	13507.23
402.01	13195.94
402.21	13483.83
402.40	13540.00
402.59	12805.07
402.78	12266.75
402.97	12046.74
403.17	12938.48
403.36	13500.21
403.55	14113.43
403.74	14115.77
403.93	13305.95
404.13	12959.55
404.32	12781.67
404.51	13453.40
404.70	14363.87
404.89	13652.34
405.09	14029.17
405.28	13095.30
405.47	12723.15
405.66	13032.10
405.85	12903.37
406.05	12290.15
406.24	12573.36
406.43	13165.51
406.62	13551.70
406.81	14008.11
407.00	13245.09
407.20	13055.51
407.39	12769.96
407.58	13549.36
407.77	14171.94
407.96	14628.35
408.15	14586.22
408.34	14633.03
408.54	15264.97
408.73	15218.16
408.92	14537.07
409.11	14848.36
409.30	14169.60
409.49	12973.59
409.68	12283.13
409.87	12049.08
410.07	12776.98
410.26	13811.50
410.45	14513.66
410.64	14815.59
410.83	15126.88
411.02	15735.42
411.21	16325.24
411.40	15751.81
411.59	15852.45
411.78	15496.69
411.98	15702.65
412.17	15836.06
412.36	15492.01
412.55	15712.02
412.74	15150.29
412.93	15412.43
413.12	15143.27
413.31	16781.64
413.50	16439.92
413.69	16751.21
413.88	16636.53
414.07	15709.68
414.26	16056.08
414.45	16367.37
414.64	16650.57
414.83	16805.05
415.02	16460.99
415.22	16355.66
415.41	16858.88
415.60	16975.91
415.79	17511.89
415.98	18691.52
416.17	17820.84
416.36	17205.28
416.55	17153.79
416.74	16634.19
416.93	16830.79
417.12	16145.02
417.31	16369.71
417.50	16720.79
417.69	17783.39
417.88	17198.26
418.07	16620.14
418.26	16432.90
418.45	16973.56
418.64	17825.52
418.83	18026.81
419.02	17759.98
419.21	17334.01
419.39	16594.40
419.58	16035.01
419.77	16009.26
419.96	17163.15
420.15	18258.52
420.34	17982.34
420.53	18801.52
420.72	19318.78
420.91	18862.38
421.10	18515.98
421.29	18403.63
421.48	17984.68
421.67	18946.64
421.86	17980.00
422.05	16760.58
422.24	15197.10
422.43	15410.09
422.61	17036.76
422.80	17970.63
422.99	18052.55
423.18	17551.68
423.37	17579.76
423.56	17392.52
423.75	17687.43
423.94	17427.63
424.13	16685.68
424.32	16645.89
424.50	16816.75
424.69	16751.21
424.88	17174.85
425.07	16566.31
425.26	17132.72
425.45	16652.91
425.64	16084.16
425.83	16430.56
426.01	17336.35
426.20	17455.72
426.39	17020.38
426.58	16093.52
426.77	14679.84
426.96	14927.94
427.15	15456.90
427.33	16058.42
427.52	16819.09
427.71	16718.45
427.90	16730.15
428.09	16074.80
428.28	16203.53
428.46	15239.23
428.65	15417.11
428.84	15651.16
429.03	16397.79
429.22	14897.51
429.40	13893.42
429.59	12840.18
429.78	12004.61
429.97	11873.54
430.16	11651.19
430.34	11503.73
430.53	11871.20
430.72	12329.94
430.91	13816.18
431.10	15885.22
431.28	18410.65
431.47	20046.69
431.66	19594.96
431.85	17312.94
432.03	16152.04
432.22	16491.41
432.41	16842.50
432.60	18733.65
432.79	18740.67
432.97	19550.49
433.16	18684.50
433.35	16809.73
433.54	15515.41
433.72	15173.69
433.91	15363.28
434.10	17158.47
434.28	18295.97
434.47	19098.77
434.66	18836.63
434.85	18075.96
435.03	19049.62
435.22	21905.07
435.41	24393.06
435.59	24790.95
435.78	22726.60
435.97	21465.05
436.16	20879.92
436.34	20018.60
436.53	19908.60
436.72	19660.50
436.90	18937.27
437.09	18904.51
437.28	18532.36
437.46	18871.74
437.65	18775.78
437.84	17806.80
438.02	16140.33
438.21	16791.00
438.40	16966.54
438.58	18387.25
438.77	18759.39
438.96	19054.30
439.14	19833.70
439.33	20608.42
439.52	20353.30
439.70	19922.64
439.89	19988.18
440.08	19173.67
440.26	19257.93
440.45	20208.19
440.63	20982.90
440.82	21745.92
441.01	21177.17
441.19	21076.52
441.38	21617.19
441.57	22345.09
441.75	22944.27
441.94	23012.15
442.12	22476.16
442.31	22937.25
442.50	22808.52
442.68	22862.35
442.87	22335.73
443.05	22029.12
443.24	22462.12
443.43	23173.64
443.61	23520.04
443.80	23407.70
443.98	22281.90
444.17	22218.71
444.35	23578.56
444.54	23843.04
444.73	22843.63
444.91	22530.00
445.10	21200.57
445.28	20638.84
445.47	20486.71
445.65	20877.58
445.84	21022.69
446.02	22064.23
446.21	22150.83
446.39	22150.83
446.58	22181.26
446.77	22389.56
446.95	22974.70
447.14	23468.55
447.32	24095.82
447.51	23410.04
447.69	22354.46
447.88	22541.70
448.06	23278.97
448.25	23152.58
448.43	23374.93
448.62	22335.73
448.80	22806.18
448.99	22913.84
449.17	22771.07
449.36	22782.77
449.54	23875.80
449.73	23751.76
449.91	24711.38
450.10	24622.44
450.28	25748.23
450.46	25717.81
450.65	25345.66
450.83	24737.12
451.02	24093.47
451.20	24180.07
451.39	24404.77
451.57	23747.08
451.76	23807.93
451.94	23646.43
452.13	23374.93
452.31	22670.43
452.49	21504.84
452.68	21544.63
452.86	22202.32
453.05	22647.02
453.23	22457.44
453.42	23087.04
453.60	23391.31
453.78	23885.17
453.97	23274.29
454.15	23288.33
454.34	22417.65
454.52	22565.10
454.70	22930.23
454.89	23213.43
455.07	22656.39
455.26	23356.21
455.44	24247.95
455.62	24760.53
455.81	24610.73
455.99	24400.08
456.17	24173.05
456.36	24418.81
456.54	24566.26
456.73	24699.67
456.91	25202.89
457.09	25460.35
457.28	25986.97
457.46	24830.74
457.64	24659.88
457.83	24023.26
458.01	23309.40
458.19	23756.44
458.38	23651.11
458.56	24973.52
458.74	24212.84
458.93	24173.05
459.11	24210.50
459.29	23931.98
459.48	24175.39
459.66	24374.34
459.84	24489.03
460.03	25970.58
460.21	24741.80
460.39	25179.48
460.57	25188.85
460.76	25074.16
460.94	25158.42
461.12	25443.96
461.31	25488.43
461.49	24982.88
461.67	24966.49
461.85	25666.31
462.04	25369.07
462.22	32524.08
462.40	25392.47
462.59	26270.17
462.77	25331.62
462.95	25685.04
463.13	24971.18
463.32	24980.54
463.50	24971.18
463.68	24912.66
463.86	24957.13
464.05	24278.38
464.23	24077.09
464.41	24077.09
464.59	23520.04
464.78	24561.58
464.96	24339.23
465.14	24514.77
465.32	24622.44
465.50	25556.31
465.69	25539.93
465.87	24891.60
466.05	24126.24
466.23	23250.88
466.41	22869.37
466.60	23281.31
466.78	23393.65
466.96	24259.65
467.14	24332.21
467.32	24973.52
467.51	24519.45
467.69	23545.79
467.87	24397.74
468.05	24184.76
468.23	24746.48
468.41	24453.92
468.60	24156.67
468.78	24819.04
468.96	24655.20
469.14	25076.50
469.32	24238.59
469.50	23527.06
469.69	24070.07
469.87	23311.74
470.05	23243.86
470.23	23597.28
470.41	23260.24
470.59	24156.67
470.77	23789.20
470.95	24180.07
471.14	25247.36
471.32	24629.46
471.50	26424.65
471.68	25715.47
471.86	26199.96
472.04	26019.74
472.22	26483.16
472.40	24713.72
472.58	24233.91
472.77	24458.60
472.95	24978.20
473.13	26396.56
473.31	25390.13
473.49	24889.26
473.67	25486.09
473.85	25830.15
474.03	26698.49
474.21	26281.88
474.39	27051.91
474.57	27154.90
474.75	26787.43
474.93	26298.26
475.12	25326.94
475.30	25862.92
475.48	25806.75
475.66	26265.49
475.84	26008.03
476.02	25783.34
476.20	25785.68
476.38	26265.49
476.56	27402.99
476.74	26841.26
476.92	27030.85
477.10	27576.19
477.28	28383.68
477.46	28245.58
477.64	28566.24
477.82	28460.91
478.00	28652.84
478.18	28037.28
478.36	27960.04
478.54	28034.94
478.72	28479.64
478.90	28804.97
479.08	30398.88
479.26	29806.72
479.44	29865.24
479.62	29631.18
479.80	29699.06
479.98	29783.32
480.16	30312.28
480.34	30015.03
480.52	30125.04
480.70	30712.51
480.88	29930.77
481.06	31365.52
481.24	31077.63
481.41	31688.51
481.59	32465.57
481.77	31627.66
481.95	31519.99
482.13	31728.30
482.31	31728.30
482.49	31676.81
482.67	32044.27
482.85	32348.54
483.03	32730.05
483.21	32945.38
483.39	33078.79
483.57	31952.99
483.74	32416.42
483.92	32477.27
484.10	31978.74
484.28	33818.40
484.46	34450.35
484.64	33989.26
484.82	32528.77
485.00	32407.06
485.18	31791.50
485.35	31185.30
485.53	28032.60
485.71	26593.17
485.89	25951.86
486.07	28058.34
486.25	30632.93
486.43	31861.71
486.61	32013.85
486.78	32114.49
486.96	31501.27
487.14	33390.08
487.32	34227.99
487.50	34581.42
487.68	36041.91
487.85	35859.35
488.03	36444.48
488.21	36341.50
488.39	35065.91
488.57	33977.56
488.75	34239.70
488.92	38590.75
489.10	37483.68
489.28	39374.83
489.46	39063.54
489.64	39168.87
489.81	39199.29
489.99	39124.40
490.17	39229.72
490.35	39945.92
490.53	38436.28
490.70	37727.10
490.88	38623.52
491.06	39562.08
491.24	39599.52
491.41	38274.78
491.59	36271.28
491.77	35693.17
491.95	36400.01
492.13	37834.76
492.30	39533.99
492.48	40350.84
492.66	41209.81
492.84	40306.37
493.01	40315.73
493.19	39583.14
493.37	39594.84
493.54	39206.31
493.72	40247.85
493.90	40535.74
494.08	42197.52
494.25	42679.67
494.43	42438.59
494.61	43012.02
494.79	42834.14
494.96	42700.73
495.14	42010.28
495.32	40208.06
495.49	39966.99
495.67	41673.24
495.85	43047.13
496.02	43173.52
496.20	43562.05
496.38	42632.86
496.55	42616.47
496.73	43306.93
496.91	43185.22
497.09	44362.51
497.26	43901.43
497.44	43054.15
497.62	43145.44
497.79	41380.67
497.97	40294.66
498.14	41008.53
498.32	41900.27
498.50	42885.64
498.67	43873.34
498.85	43152.46
499.03	43910.79
499.20	44353.15
499.38	43791.42
499.56	43751.63
499.73	43274.16
499.91	43007.34
500.08	41984.53
500.26	41235.56
500.44	41553.87
500.61	42667.97
500.79	41598.34
500.97	41785.58
501.14	41598.34
501.32	40844.69
501.49	41265.99
501.67	41521.10
501.84	42518.17
502.02	42672.65
502.20	43274.16
502.37	43302.25
502.55	43037.77
502.72	43653.33
502.90	44266.55
503.07	43882.70
503.25	43482.47
503.43	41823.03
503.60	40928.95
503.78	40350.84
503.95	41310.46
504.13	43255.44
504.30	44418.69
504.48	43531.62
504.65	43454.39
504.83	43428.64
505.01	44158.89
505.18	44245.49
505.36	45647.47
505.53	45394.69
505.71	45296.39
505.88	46490.06
506.06	45050.63
506.23	44477.20
506.41	43931.86
506.58	44360.17
506.76	43952.92
506.93	44062.93
507.11	44095.69
507.28	43730.57
507.46	42939.47
507.63	42349.65
507.81	42122.62
507.98	42614.13
508.16	43323.32
508.33	44271.23
508.50	44605.93
508.68	45123.19
508.85	45661.51
509.03	45837.05
509.20	45507.04
509.38	44783.81
509.55	43702.48
509.73	44041.86
509.90	44411.67
510.08	44615.29
510.25	44863.39
510.42	44280.60
510.60	44009.09
510.77	44715.93
510.95	45918.97
511.12	45509.38
511.30	45860.46
511.47	46078.13
511.64	46525.17
511.82	45542.14
511.99	44446.77
512.17	43777.38
512.34	42979.26
512.51	43871.00
512.69	43744.61
512.86	44252.51
513.04	44369.54
513.21	44105.06
513.38	43622.90
513.56	43040.11
513.73	42263.05
513.90	42728.82
514.08	42787.33
514.25	43281.19
514.43	43803.13
514.60	43669.72
514.77	43821.85
514.95	44165.91
515.12	43594.82
515.29	44603.59
515.47	44732.32
515.64	45155.96
515.81	45078.72
515.99	43983.35
516.16	41813.67
516.33	38813.10
516.51	37163.03
516.68	36074.68
516.85	35571.46
517.03	36769.82
517.20	39880.39
517.37	42546.26
517.54	43812.49
517.72	42679.67
517.89	39037.80
518.06	36620.02
518.24	38487.77
518.41	41193.43
518.58	42267.73
518.75	42071.13
518.93	42691.37
519.10	42291.14
519.27	42642.22
519.45	43257.78
519.62	44023.14
519.79	44996.80
519.96	44687.85
520.14	43494.18
520.31	42316.89
520.48	42426.89
520.65	43100.97
520.83	44406.98
521.00	45317.45
521.17	44839.98
521.34	43910.79
521.52	44491.24
521.69	45031.91
521.86	45851.09
522.03	45544.48
522.20	43768.02
522.38	41883.89
522.55	42506.47
522.72	42742.86
522.89	42836.48
523.07	43711.84
523.24	44292.30
523.41	45343.20
523.58	45511.72
523.75	46417.50
523.92	45553.85
524.10	46263.03
524.27	45734.07
524.44	45155.96
524.61	45504.70
524.78	44839.98
524.96	45085.74
525.13	44924.24
525.30	45549.17
525.47	46227.92
525.64	45729.39
525.81	44376.56
525.98	42014.96
526.16	40172.96
526.33	39889.75
526.50	38717.14
526.67	38646.93
526.84	39627.61
527.01	40748.73
527.18	42045.38
527.36	43386.51
527.53	44533.37
527.70	45258.94
527.87	43711.84
528.04	43573.75
528.21	44362.51
528.38	45387.67
528.55	46398.78
528.72	46843.48
528.89	46829.44
529.07	45776.20
529.24	44746.36
529.41	44545.08
529.58	43271.82
529.75	43318.64
529.92	44451.45
530.09	44624.65
530.26	45790.24
530.43	46213.88
530.60	46115.58
530.77	46571.98
530.94	46410.48
531.11	45717.68
531.28	45462.57
531.46	45074.04
531.63	45270.64
531.80	45052.97
531.97	44425.71
532.14	43253.10
532.31	41832.39
532.48	41148.96
532.65	41752.82
532.82	42333.27
532.99	43835.89
533.16	44584.86
533.33	45193.40
533.50	45123.19
533.67	43395.87
533.84	43423.96
534.01	43477.79
534.18	44058.24
534.35	44130.80
534.52	44020.80
534.69	44865.73
534.86	44807.22
535.03	44912.54
535.20	45755.13
535.37	46983.91
535.54	46590.70
535.71	45813.65
535.88	45635.77
536.05	44893.82
536.22	44182.29
536.38	43676.74
536.55	43161.82
536.72	42635.20
536.89	42340.29
537.06	43681.42
537.23	44531.03
537.40	44547.42
537.57	44968.71
537.74	45074.04
537.91	44896.16
538.08	44769.77
538.25	45195.74
538.42	45263.62
538.59	44844.66
538.75	43597.16
538.92	43695.46
539.09	43913.13
539.26	43477.79
539.43	43695.46
539.60	44032.50
539.77	44505.29
539.94	44240.81
540.11	43236.72
540.28	43501.20
540.44	43730.57
540.61	43828.87
540.78	44376.56
540.95	45610.02
541.12	47133.71
541.29	47613.52
541.46	48451.43
541.62	48399.94
541.79	48051.20
541.96	47285.84
542.13	47147.75
542.30	47716.50
542.47	47351.38
542.63	46646.88
542.80	46930.08
542.97	46689.01
543.14	46532.19
543.31	46391.76
543.48	47236.69
543.64	48451.43
543.81	48912.52
543.98	47824.17
544.15	47454.36
544.32	46380.06
544.48	46731.14
544.65	47145.41
544.82	47576.07
544.99	46782.63
545.16	46801.35
545.32	46719.43
545.49	51374.76
545.66	54017.22
545.83	54433.84
546.00	52538.01
546.16	48956.99
546.33	47430.96
546.50	46124.94
546.67	46586.02
546.83	45195.74
547.00	45570.23
547.17	43704.82
547.34	43372.47
547.50	43697.80
547.67	44016.11
547.84	43887.39
548.00	44615.29
548.17	44725.30
548.34	44545.08
548.51	44680.83
548.67	44949.99
548.84	44790.83
549.01	44507.63
549.18	44144.84
549.34	44638.70
549.51	44294.64
549.68	44184.63
549.84	43328.00
550.01	42777.97
550.18	44404.64
550.34	44069.95
550.51	42752.23
550.68	43447.36
550.84	42389.44
551.01	42101.56
551.18	42246.67
551.34	42703.07
551.51	43075.22
551.68	43276.51
551.84	43913.13
552.01	42178.79
552.18	42756.91
552.34	41392.37
552.51	41237.90
552.68	41102.15
552.84	41275.35
553.01	41837.08
553.18	41706.01
553.34	41495.36
553.51	41902.61
553.67	42419.87
553.84	42602.43
554.01	42115.60
554.17	42139.00
554.34	41567.91
554.51	41853.46
554.67	42337.95
554.84	41930.70
555.00	41551.53
555.17	41247.26
555.33	41668.56
555.50	40776.81
555.67	41174.70
555.83	40835.33
556.00	40451.48
556.16	42506.47
556.33	39864.00
556.50	39594.84
556.66	39814.85
556.83	39042.48
556.99	39449.73
557.16	39728.25
557.32	39812.51
557.49	39988.05
557.65	39995.07
557.82	39723.57
557.98	39775.06
558.15	39196.95
558.32	38279.46
558.48	36772.16
558.65	37787.95
558.81	37982.21
558.98	38403.51
559.14	38471.39
559.31	38440.96
559.47	38412.87
559.64	37539.85
559.80	37745.82
559.97	37706.03
560.13	38637.56
560.30	39051.84
560.46	39768.04
560.63	40055.93
560.79	40275.94
560.96	39262.49
561.12	37528.15
561.29	36718.32
561.45	36987.49
561.61	37766.88
561.78	39409.94
561.94	38632.88
562.11	38457.34
562.27	38279.46
562.44	38452.66
562.60	38920.77
562.77	38986.30
562.93	39100.99
563.10	38803.74
563.26	37780.93
563.42	38522.88
563.59	37237.92
563.75	37205.16
563.92	38251.38
564.08	37720.07
564.24	38309.89
564.41	38508.83
564.57	37940.08
564.74	37596.03
564.90	37378.36
565.07	37708.37
565.23	37104.51
565.39	36322.77
565.56	35735.30
565.72	35491.88
565.88	36458.52
566.05	36360.22
566.21	36306.39
566.38	36655.13
566.54	36652.79
566.70	37340.91
566.87	37284.73
567.03	37273.03
567.19	37563.26
567.36	37717.73
567.52	37060.04
567.68	36591.94
567.85	35971.69
568.01	35866.37
568.17	34930.16
568.34	35211.02
568.50	35615.93
568.66	35002.71
568.83	36601.30
568.99	35569.12
569.15	36112.13
569.32	35985.74
569.48	35257.83
569.64	34993.35
569.81	35037.82
569.97	34651.63
570.13	35180.59
570.30	34141.39
570.46	33912.02
570.62	32910.27
570.78	33228.59
570.95	33408.81
571.11	34904.41
571.27	34658.65
571.43	34518.22
571.60	35356.13
571.76	34962.92
571.92	35349.11
572.09	35449.75
572.25	35587.85
572.41	35555.08
572.57	34782.70
572.74	36048.93
572.90	35353.79
573.06	34653.97
573.22	35101.01
573.38	35325.71
573.55	35084.63
573.71	35178.25
573.87	34834.19
574.03	34457.37
574.20	35077.61
574.36	34885.68
574.52	34375.45
574.68	34050.11
574.84	34064.16
575.01	32879.85
575.17	33209.86
575.33	33530.51
575.49	34440.98
575.65	34134.37
575.82	34071.18
575.98	34483.11
576.14	33649.88
576.30	34796.74
576.46	36058.29
576.62	36865.78
576.79	36407.03
576.95	35250.81
577.11	34235.02
577.27	34045.43
577.43	33731.80
577.59	33610.09
577.75	33036.66
577.92	32194.07
578.08	32315.78
578.24	32065.34
578.40	33460.30
578.56	34773.34
578.72	35463.80
578.88	35496.56
579.04	34614.18
579.21	33890.96
579.37	33170.07
579.53	33762.23
579.69	34352.04
579.85	34054.79
580.01	34422.26
580.17	33647.54
580.33	33006.23
580.49	33158.37
580.65	33717.76
580.82	33991.60
580.98	33130.28
581.14	32992.19
581.30	33518.81
581.46	33556.26
581.62	34153.10
581.78	33394.76
581.94	34190.55
582.10	33809.04
582.26	33996.28
582.42	33764.57
582.58	34213.95
582.74	33729.46
582.90	33923.72
583.06	34075.86
583.22	33544.56
583.38	33993.94
583.54	33897.98
583.70	34508.86
583.86	34330.98
584.02	33912.02
584.18	34609.50
584.34	33853.51
584.50	33432.21
584.66	33163.05
584.82	32613.02
584.98	33120.92
585.14	32245.56
585.30	32002.14
585.46	31630.00
585.62	31278.92
585.78	31842.99
585.94	31960.02
586.10	32453.87
586.26	32320.46
586.42	33212.20
586.58	33776.27
586.74	33729.46
586.90	33755.21
587.06	33422.85
587.22	33556.26
587.38	32776.86
587.54	32439.82
587.70	32676.22
587.86	31665.11
588.02	31365.52
588.18	30539.31
588.34	29858.21
588.49	28170.69
588.65	26967.65
588.81	26527.63
588.97	26733.60
589.13	26632.96
589.29	26429.33
589.45	27505.98
589.61	28074.73
589.77	29298.83
589.93	29181.80
590.08	29766.93
590.24	29888.64
590.40	30363.77
590.56	30661.02
590.72	29869.92
590.88	30026.73
591.04	29610.12
591.20	29308.19
591.35	29982.26
591.51	29465.00
591.67	29301.17
591.83	29572.67
591.99	30000.99
592.15	30551.01
592.31	30609.53
592.46	30242.06
592.62	30441.01
592.78	30319.30
592.94	30012.69
593.10	30127.38
593.26	30565.06
593.41	30445.69
593.57	29764.59
593.73	29256.70
593.89	29359.68
594.05	29039.03
594.20	28615.39
594.36	28683.27
594.52	28201.11
594.68	28039.62
594.84	28746.46
594.99	28826.04
595.15	28907.96
595.31	28938.38
595.47	29240.31
595.62	28650.50
595.78	29144.35
595.94	29558.63
596.10	29603.10
596.25	28762.84
596.41	28753.48
596.57	28446.87
596.73	28552.20
596.88	28835.40
597.04	28746.46
597.20	28346.23
597.36	28383.68
597.51	28247.93
597.67	28407.08
597.83	28531.13
597.99	28013.87
598.14	27798.54
598.30	28402.40
598.46	27871.10
598.61	28439.85
598.77	28463.25
598.93	28402.40
599.09	28587.30
599.24	28929.02
599.40	29043.71
599.56	28276.01
599.71	28460.91
599.87	28421.13
600.03	28151.96
600.18	27924.93
600.34	27920.25
600.50	27168.94
600.65	27531.72
600.81	28058.34
600.97	27491.93
601.12	27733.01
601.28	27716.62
601.44	27140.85
601.59	27072.98
601.75	26855.31
601.91	27157.24
602.06	26808.50
602.22	28109.83
602.37	27527.04
602.53	26632.96
602.69	27887.48
602.84	27014.46
603.00	27410.01
603.16	27838.33
603.31	28088.77
603.47	27302.35
603.62	26778.07
603.78	27452.14
603.94	27344.48
604.09	27707.26
604.25	27498.95
604.40	27384.27
604.56	27091.70
604.71	27328.10
604.87	26859.99
605.03	26820.20
605.18	26883.39
605.34	27080.00
605.49	26855.31
605.65	26902.12
605.80	26412.95
605.96	26862.33
606.12	26494.86
606.27	26670.40
606.43	26246.77
606.58	26986.38
606.74	26948.93
606.89	26724.24
607.05	27047.23
607.20	27091.70
607.36	26689.13
607.51	26380.18
607.67	26246.77
607.82	26562.74
607.98	26717.22
608.13	26560.40
608.29	26347.41
608.44	27080.00
608.60	26911.48
608.75	27180.64
608.91	27082.34
609.06	27281.28
609.22	27634.71
609.37	27271.92
609.53	27515.34
609.68	27555.13
609.84	27342.14
609.99	28217.50
610.15	29413.51
610.30	31058.91
610.46	33071.77
610.61	34829.51
610.76	37624.11
610.92	39761.02
611.07	40481.91
611.23	40598.93
611.38	38689.06
611.54	35402.94
611.69	33436.89
611.84	31480.21
612.00	30183.55
612.15	29490.75
612.31	28819.02
612.46	28332.18
612.62	27997.49
612.77	28659.86
612.92	28418.78
613.08	27969.40
613.23	27498.95
613.39	26637.64
613.54	26005.69
613.69	26242.09
613.85	26403.58
614.00	26480.82
614.15	27227.45
614.31	26775.73
614.46	26909.14
614.62	26263.15
614.77	26759.34
614.92	26129.74
615.08	26125.06
615.23	25530.56
615.38	25345.66
615.54	24680.95
615.69	23875.80
615.84	23164.28
616.00	23138.54
616.15	22972.36
616.30	23646.43
616.46	23374.93
616.61	23166.62
616.76	23538.77
616.92	23330.46
617.07	23513.02
617.22	23660.48
617.37	23370.25
617.53	23538.77
617.68	23470.89
617.83	23440.47
617.99	23955.38
618.14	23798.57
618.29	23641.75
618.45	23384.29
618.60	23112.79
618.75	22597.87
618.90	22937.25
619.06	23033.21
619.21	23508.34
619.36	23524.72
619.51	23051.94
619.67	22710.22
619.82	22728.94
619.97	23260.24
620.12	23571.54
620.28	23278.97
620.43	22986.40
620.58	23426.42
620.73	23283.65
620.89	22857.67
621.04	22546.38
621.19	22995.76
621.34	22160.19
621.49	21921.46
621.65	22340.41
621.80	22089.98
621.95	21940.18
622.10	22508.93
622.25	22141.47
622.41	21816.13
622.56	21678.04
622.71	21589.10
622.86	22115.72
623.01	21589.10
623.16	22040.82
623.32	21778.68
623.47	22059.55
623.62	21656.98
623.77	21774.00
623.92	21628.89
624.07	20711.40
624.23	20943.11
624.38	20798.00
624.53	20915.03
624.68	21333.98
624.83	21436.97
624.98	20446.92
625.13	20760.55
625.29	20767.57
625.44	20821.41
625.59	20711.40
625.74	21095.25
625.89	21336.32
626.04	20659.91
626.19	20676.29
626.34	20559.27
626.49	20826.09
626.65	20512.46
626.80	20561.61
626.95	20793.32
627.10	20273.72
627.25	20081.80
627.40	19180.69
627.55	19264.95
627.70	18927.91
627.85	19157.28
628.00	19201.76
628.15	19463.90
628.30	19683.91
628.45	19920.30
628.60	19494.32
628.76	19468.58
628.91	19726.04
629.06	19854.76
629.21	19501.34
629.36	20016.26
629.51	19105.79
629.66	19417.08
629.81	19300.06
629.96	19601.99
630.11	19901.58
630.26	19915.62
630.41	20149.67
630.56	20369.68
630.71	19978.81
630.86	20161.37
631.01	19974.13
631.16	19637.09
631.31	19623.05
631.46	19517.73
631.61	18841.31
631.76	18932.59
631.91	18831.95
632.06	19145.58
632.21	19009.83
632.36	18970.04
632.51	18506.62
632.66	18974.72
632.81	18448.10
632.96	18792.16
633.10	18707.90
633.25	18831.95
633.40	18361.50
633.55	18361.50
633.70	18012.76
633.85	18267.88
634.00	18078.30
634.15	17743.60
634.30	18305.33
634.45	18300.65
634.60	18167.24
634.75	18307.67
634.90	18146.17
635.05	18274.90
635.19	18384.91
635.34	17926.16
635.49	17956.59
635.64	17598.49
635.79	17362.09
635.94	17987.02
636.09	18104.04
636.24	17865.31
636.39	17921.48
636.53	18094.68
636.68	17420.61
636.83	17921.48
636.98	18441.08
637.13	17474.44
637.28	18061.91
637.43	18347.46
637.57	18162.56
637.72	18279.58
637.87	17930.84
638.02	17539.97
638.17	17968.29
638.32	17895.74
638.46	17621.89
638.61	18256.18
638.76	17205.28
638.91	16992.29
639.06	17165.49
639.20	17600.83
639.35	17191.23
639.50	16931.44
639.65	17404.22
639.80	17013.35
639.94	17521.25
640.09	17673.39
640.24	17521.25
640.39	17135.06
640.54	16823.77
640.68	16849.52
640.83	17060.16
640.98	16575.67
641.13	16336.94
641.27	16606.10
641.42	16526.52
641.57	16765.26
641.72	16898.67
641.86	16339.28
642.01	16711.42
642.16	17057.82
642.31	16648.23
642.45	17198.26
642.60	17205.28
642.75	16315.87
642.90	16800.37
643.04	16257.36
643.19	16079.48
643.34	16332.26
643.48	16145.02
643.63	16063.10
643.78	16912.71
643.93	16989.95
644.07	16594.40
644.22	16416.52
644.37	15896.92
644.51	16416.52
644.66	16231.62
644.81	16215.23
644.95	16372.05
645.10	15803.30
645.25	15655.84
645.39	16334.60
645.54	15433.49
645.69	16088.84
645.83	15035.60
645.98	16074.80
646.13	15417.11
646.27	15651.16
646.42	15241.57
646.57	15367.96
646.71	15272.00
646.86	15105.82
647.00	15140.93
647.15	15304.76
647.30	14815.59
647.44	14927.94
647.59	14824.95
647.74	14768.78
647.88	14846.02
648.03	14459.83
648.17	15133.90
648.32	14736.01
648.47	15328.17
648.61	15042.62
648.76	14700.90
648.90	14401.32
649.05	14026.83
649.20	13846.61
649.34	14015.13
649.49	14106.41
649.63	14384.93
649.78	14771.12
649.92	15136.24
650.07	15293.06
650.21	14782.82
650.36	15840.75
650.51	15108.16
650.65	15747.12
650.80	15199.44
650.94	15000.49
651.09	15005.17
651.23	14363.87
651.38	14047.90
651.52	14185.99
651.67	14317.06
651.81	14492.60
651.96	14775.80
652.10	14846.02
652.25	14663.46
652.39	14761.76
652.54	14860.06
652.68	14764.10
652.83	14576.86
652.97	14661.12
653.12	14640.05
653.26	13956.61
653.41	14806.23
653.55	14792.19
653.70	14434.08
653.84	14387.27
653.99	14033.85
654.13	13685.11
654.27	13961.30
654.42	13935.55
654.56	13757.67
654.71	14047.90
654.85	13469.78
655.00	13289.56
655.14	13341.05
655.29	12917.42
655.43	13076.57
655.57	12444.63
655.72	11562.25
655.86	10637.73
656.01	10630.71
656.15	10487.94
656.30	11529.48
656.44	11477.99
656.58	11878.22
656.73	12512.50
656.87	12538.25
657.01	12861.24
657.16	13715.54
657.30	13231.05
657.45	13823.20
657.59	13680.43
657.73	13472.12
657.88	13586.81
658.02	14590.90
658.16	13467.44
658.31	13420.63
658.45	13380.84
658.60	13205.30
658.74	13392.55
658.88	13156.15
659.03	13071.89
659.17	12772.30
659.31	12814.43
659.46	13186.58
659.60	13376.16
659.74	13364.46
659.89	13327.01
660.03	13085.94
660.17	13963.64
660.32	13453.40
660.46	13338.71
660.60	13088.28
660.74	13425.31
660.89	13191.26
661.03	12678.68
661.17	13050.83
661.32	12924.44
661.46	13029.76
661.60	12973.59
661.74	13324.67
661.89	13563.40
662.03	13568.09
662.17	13226.37
662.31	13046.15
662.46	13303.60
662.60	13039.12
662.74	12957.21
662.88	12868.27
663.03	12493.78
663.17	12248.02
663.31	12486.76
663.45	12791.03
663.60	12329.94
663.74	12325.26
663.88	12294.83
664.02	12451.65
664.17	12147.38
664.31	12245.68
664.45	12512.50
664.59	12320.58
664.73	12435.27
664.88	12725.49
665.02	11992.90
665.16	12212.92
665.30	12713.79
665.44	12334.62
665.59	12685.70
665.73	12135.68
665.87	11974.18
666.01	11941.41
666.15	11765.87
666.29	11613.74
666.44	12379.09
666.58	12531.23
666.72	11831.41
666.86	11988.22
667.00	12191.85
667.14	12180.15
667.28	11808.00
667.43	11646.51
667.57	11744.81
667.71	11943.75
667.85	11693.32
667.99	11742.47
668.13	11555.22
668.27	12006.95
668.41	11838.43
668.56	11592.67
668.70	12032.69
668.84	11733.11
668.98	11592.67
669.12	11204.14
669.26	11480.33
669.40	12109.93
669.54	11536.50
669.68	11690.98
669.82	10963.07
669.96	11527.14
670.10	11485.01
670.25	11597.35
670.39	11590.33
670.53	11068.39
670.67	11274.36
670.81	11012.22
670.95	11314.15
671.09	10775.83
671.23	11344.58
671.37	11206.48
671.51	10721.99
671.65	11009.88
671.79	10750.08
671.93	11199.46
672.07	11646.51
672.21	10881.15
672.35	10588.58
672.49	10663.48
672.63	11269.68
672.77	11260.32
672.91	10761.78
673.05	10562.84
673.19	10583.90
673.33	10452.83
673.47	11166.70
673.61	10532.41
673.75	10420.06
673.89	10298.36
674.03	10499.64
674.17	10581.56
674.31	10523.05
674.45	10387.30
674.59	10347.51
674.73	10214.10
674.87	10188.35
675.01	10382.62
675.15	10054.94
675.29	10380.28
675.43	10391.98
675.56	10586.24
675.70	10576.88
675.84	10396.66
675.98	9984.73
676.12	9858.34
676.26	9919.19
676.40	9661.73
676.54	9865.36
676.68	9741.31
676.82	9886.42
676.96	9605.56
677.10	9762.37
677.23	9584.49
677.37	9394.91
677.51	9774.08
677.65	10260.91
677.79	9291.93
677.93	9329.38
678.07	9408.95
678.21	9146.81
678.34	9142.13
678.48	8922.12
678.62	9362.14
678.76	9018.08
678.90	9212.35
679.04	9160.86
679.18	9240.44
679.31	8760.63
679.45	8945.53
679.59	9217.03
679.73	9020.42
679.87	8692.75
680.00	9301.29
680.14	8863.61
680.28	8889.35
680.42	8760.63
680.56	9004.04
680.70	8512.53
680.83	8940.85
680.97	8571.04
681.11	8601.47
681.25	8973.61
681.39	8657.64
681.52	8966.59
681.66	8755.94
681.80	8638.92
681.94	8332.31
682.07	8524.23
682.21	8557.00
682.35	8351.03
682.49	8187.19
682.62	8610.83
682.76	8011.65
682.90	8088.89
683.04	8301.88
683.17	8273.79
683.31	7903.99
683.45	8524.23
683.59	8346.35
683.72	8133.36
683.86	7941.44
684.00	7674.62
684.13	8203.58
684.27	8098.25
684.41	7964.84
684.55	7831.43
684.68	7772.92
684.82	7723.77
684.96	7700.36
685.09	7644.19
685.23	7421.84
685.37	7482.69
685.50	7882.92
685.64	7957.82
685.78	7316.51
685.91	7576.31
686.05	7768.24
686.19	7480.35
686.32	6736.06
686.46	6066.67
686.60	5174.92
686.73	5764.74
686.87	5284.93
687.01	4844.91
687.14	4631.92
687.28	5064.92
687.42	5296.63
687.55	5476.85
687.69	6167.31
687.82	6005.81
687.96	6319.45
688.10	6410.73
688.23	6106.46
688.37	6415.41
688.50	6204.76
688.64	5940.28
688.78	5678.14
688.91	5633.67
689.05	5582.18
689.18	5509.62
689.32	5706.23
689.46	5600.90
689.59	5900.49
689.73	6120.50
689.86	5636.01
690.00	5844.32
690.13	5645.37
690.27	5570.48
690.41	5930.92
690.54	6146.25
690.68	5877.09
690.81	5905.17
690.95	5987.09
691.08	6090.07
691.22	5912.19
691.35	5755.38
691.49	5673.46
691.62	5834.96
691.76	5757.72
691.89	5832.62
692.03	5537.71
692.16	5624.31
692.30	5884.11
692.43	5783.46
692.57	5528.35
692.70	5359.83
692.84	5919.21
692.97	5455.79
693.11	5364.51
693.24	5448.77
693.38	5289.61
693.51	5338.76
693.65	5526.00
693.78	5200.67
693.92	5259.18
694.05	5568.13
694.19	5174.92
694.32	5369.19
694.45	5291.95
694.59	5231.10
694.72	5263.86
694.86	5172.58
694.99	5348.12
695.13	4983.00
695.26	5205.35
695.39	5163.22
695.53	5870.06
695.66	5158.54
695.80	5453.45
695.93	4908.10
696.07	5195.99
696.20	5308.34
696.33	5107.05
696.47	5277.91
696.60	5252.16
696.73	5425.36
696.87	5231.10
697.00	5900.49
697.14	5369.19
697.27	5184.29
697.40	5736.65
697.54	4880.02
697.67	4828.53
697.80	5090.67
697.94	4854.27
698.07	4950.23
698.21	4655.33
698.34	4983.00
698.47	4491.49
698.61	4454.04
698.74	4533.62
698.87	4865.97
699.01	4477.44
699.14	4660.01
699.27	4894.06
699.40	6059.65
699.54	4524.26
699.67	4479.79
699.80	4421.27
699.94	4435.32
700.07	4231.69
700.20	4037.42
700.34	4348.72
700.47	3983.59
700.60	3990.61
700.73	4308.93
700.87	4648.30
701.00	4147.43
701.13	4245.73
701.26	4212.96
701.40	4170.83
701.53	4189.56
701.66	4051.47
701.79	4241.05
701.93	4217.65
702.06	4657.67
702.19	3971.89
702.32	4498.51
702.46	4051.47
702.59	3889.97
702.72	3873.59
702.85	4100.62
702.99	3899.33
703.12	4346.37
703.25	3978.91
703.38	4072.53
703.51	4367.44
703.65	3779.97
703.78	3962.53
703.91	4219.99
704.04	4245.73
704.17	4229.35
704.31	3789.33
704.44	3936.78
704.57	3861.88
704.70	4124.02
704.83	4070.19
704.96	3819.75
705.10	3985.93
705.23	3784.65
>>>>>End Processed Spectral Data<<<<<
