SpectraSuite Data File
++++++++++++++++++++++++++++++++++++
Date: Mon Oct 07 14:54:55 GMT-05:00 2013
User: price-jones
Dark Spectrum Present: No
Reference Spectrum Present: No
Number of Sampled Component Spectra: 1
Spectrometers: USB2+H05261
Integration Time (usec): 10000 (USB2+H05261)
Spectra Averaged: 1 (USB2+H05261)
Boxcar Smoothing: 0 (USB2+H05261)
Correct for Electrical Dark: No (USB2+H05261)
Strobe/Lamp Enabled: No (USB2+H05261)
Correct for Detector Non-linearity: No (USB2+H05261)
Correct for Stray Light: No (USB2+H05261)
Number of Pixels in Processed Spectrum: 2048
>>>>>Begin Processed Spectral Data<<<<<
365.73	0.00
365.92	0.00
366.12	0.00
366.32	0.00
366.52	0.00
366.72	0.00
366.91	0.00
367.11	0.00
367.31	0.00
367.51	0.00
367.70	0.00
367.90	0.00
368.10	0.00
368.30	0.00
368.49	0.00
368.69	0.00
368.89	0.00
369.09	0.00
369.28	0.00
369.48	0.00
369.68	0.00
369.87	0.00
370.07	0.00
370.27	0.00
370.47	0.00
370.66	0.00
370.86	9.36
371.06	0.00
371.25	4.68
371.45	0.00
371.65	9.36
371.84	0.00
372.04	0.00
372.24	0.00
372.44	25.75
372.63	0.00
372.83	0.00
373.03	25.75
373.22	0.00
373.42	30.43
373.62	98.30
373.81	46.81
374.01	0.00
374.21	0.00
374.40	0.00
374.60	7.02
374.79	21.06
374.99	107.66
375.19	110.01
375.38	140.43
375.58	93.62
375.78	110.01
375.97	88.94
376.17	56.17
376.37	182.56
376.56	124.05
376.76	79.58
376.95	154.48
377.15	217.67
377.35	208.31
377.54	257.46
377.74	243.42
377.93	187.24
378.13	184.90
378.33	196.60
378.52	217.67
378.72	84.26
378.91	152.13
379.11	168.52
379.31	112.35
379.50	135.75
379.70	65.54
379.89	159.16
380.09	156.82
380.28	215.33
380.48	131.07
380.68	102.98
380.87	177.88
381.07	180.22
381.26	161.50
381.46	91.28
381.65	145.11
381.85	124.05
382.04	35.11
382.24	28.09
382.43	25.75
382.63	30.43
382.83	4.68
383.02	70.22
383.22	30.43
383.41	18.72
383.61	0.00
383.80	25.75
384.00	100.64
384.19	119.37
384.39	266.82
384.58	180.22
384.78	184.90
384.97	147.45
385.17	110.01
385.36	156.82
385.56	121.71
385.75	119.37
385.95	147.45
386.14	222.35
386.34	177.88
386.53	177.88
386.72	70.22
386.92	154.48
387.11	163.84
387.31	212.99
387.50	156.82
387.70	138.09
387.89	163.84
388.09	227.03
388.28	189.58
388.48	173.20
388.67	163.84
388.86	283.20
389.06	278.52
389.25	332.36
389.45	428.32
389.64	322.99
389.84	341.72
390.03	341.72
390.22	348.74
390.42	318.31
390.61	407.25
390.81	397.89
391.00	428.32
391.19	447.04
391.39	388.53
391.58	332.36
391.78	376.83
391.97	322.99
392.16	220.01
392.36	196.60
392.55	72.56
392.75	93.62
392.94	0.00
393.13	0.00
393.33	37.45
393.52	154.48
393.71	231.71
393.91	248.10
394.10	351.08
394.29	360.44
394.49	294.91
394.68	381.51
394.88	475.13
395.07	435.34
395.26	531.30
395.46	430.66
395.65	472.79
395.84	269.16
396.04	189.58
396.23	149.79
396.42	70.22
396.62	102.98
396.81	131.07
397.00	243.42
397.19	351.08
397.39	458.74
397.58	568.75
397.77	594.50
397.97	730.25
398.16	664.71
398.35	634.29
398.55	678.76
398.74	723.23
398.93	772.38
399.12	744.29
399.32	688.12
399.51	730.25
399.70	791.10
399.90	774.72
400.09	788.76
400.28	788.76
400.47	765.36
400.67	713.86
400.86	788.76
401.05	828.55
401.24	894.08
401.44	854.30
401.63	837.91
401.82	919.83
402.01	812.17
402.21	816.85
402.40	908.13
402.59	873.02
402.78	772.38
402.97	767.70
403.17	849.61
403.36	936.21
403.55	1034.52
403.74	954.94
403.93	847.27
404.13	821.53
404.32	767.70
404.51	816.85
404.70	814.51
404.89	896.43
405.09	823.87
405.28	809.83
405.47	791.10
405.66	760.67
405.85	950.26
406.05	706.84
406.24	741.95
406.43	842.59
406.62	844.93
406.81	842.59
407.00	833.23
407.20	826.21
407.39	947.92
407.58	840.25
407.77	896.43
407.96	919.83
408.15	823.87
408.34	910.47
408.54	917.49
408.73	1025.15
408.92	1027.50
409.11	994.73
409.30	992.39
409.49	910.47
409.68	851.96
409.87	704.50
410.07	765.36
410.26	917.49
410.45	950.26
410.64	950.26
410.83	1167.93
411.02	1053.24
411.21	1102.39
411.40	1128.14
411.59	1088.35
411.78	1004.09
411.98	1041.54
412.17	1158.57
412.36	1086.01
412.55	1057.92
412.74	1020.47
412.93	1004.09
413.12	987.71
413.31	1160.91
413.50	1165.59
413.69	1156.22
413.88	1088.35
414.07	1111.75
414.26	1100.05
414.45	1121.12
414.64	1205.38
414.83	1210.06
415.02	1116.44
415.22	1050.90
415.41	1160.91
415.60	1128.14
415.79	1280.27
415.98	1240.48
416.17	1261.55
416.36	1153.88
416.55	1299.00
416.74	1221.76
416.93	1254.53
417.12	1057.92
417.31	1093.03
417.50	1242.82
417.69	1263.89
417.88	1158.57
418.07	1280.27
418.26	1198.35
418.45	1137.50
418.64	1221.76
418.83	1238.14
419.02	1240.48
419.21	1212.40
419.39	1181.97
419.58	1104.73
419.77	1107.07
419.96	1165.59
420.15	1212.40
420.34	1233.46
420.53	1364.53
420.72	1352.83
420.91	1284.95
421.10	1327.08
421.29	1334.11
421.48	1341.13
421.67	1329.42
421.86	1226.44
422.05	1217.08
422.24	1015.79
422.43	924.51
422.61	1226.44
422.80	1331.76
422.99	1287.29
423.18	1238.14
423.37	1217.08
423.56	1214.74
423.75	1210.06
423.94	1350.49
424.13	1116.44
424.32	1221.76
424.50	1252.19
424.69	1149.20
424.88	1212.40
425.07	1210.06
425.26	1256.87
425.45	1083.67
425.64	1114.10
425.83	1088.35
426.01	1240.48
426.20	1322.40
426.39	1235.80
426.58	1097.71
426.77	1067.28
426.96	1006.43
427.15	1025.15
427.33	1111.75
427.52	1123.46
427.71	1116.44
427.90	1184.31
428.09	1137.50
428.28	1153.88
428.46	1114.10
428.65	1116.44
428.84	1114.10
429.03	1123.46
429.22	1034.52
429.40	983.02
429.59	997.07
429.78	772.38
429.97	763.01
430.16	791.10
430.34	770.04
430.53	781.74
430.72	814.51
430.91	861.32
431.10	1039.20
431.28	1320.06
431.47	1462.83
431.66	1460.49
431.85	1334.11
432.03	1200.69
432.22	1043.88
432.41	1100.05
432.60	1327.08
432.79	1348.15
432.97	1455.81
433.16	1341.13
433.35	1228.78
433.54	1048.56
433.72	924.51
433.91	1086.01
434.10	1228.78
434.28	1308.36
434.47	1409.00
434.66	1474.54
434.85	1390.28
435.03	1320.06
435.22	1348.15
435.41	1409.00
435.59	1453.47
435.78	1409.00
435.97	1497.94
436.16	1577.52
436.34	1439.43
436.53	1465.18
436.72	1495.60
436.90	1462.83
437.09	1299.00
437.28	1320.06
437.46	1474.54
437.65	1224.10
437.84	1404.32
438.02	1245.16
438.21	1046.22
438.40	1284.95
438.58	1217.08
438.77	1270.91
438.96	1490.92
439.14	1465.18
439.33	1551.78
439.52	1486.24
439.70	1593.90
439.89	1387.94
440.08	1343.47
440.26	1301.34
440.45	1502.62
440.63	1528.37
440.82	1598.59
441.01	1666.46
441.19	1640.72
441.38	1643.06
441.57	1659.44
441.75	1795.19
441.94	1795.19
442.12	1694.55
442.31	1694.55
442.50	1734.34
442.68	1626.67
442.87	1694.55
443.05	1577.52
443.24	1696.89
443.43	1671.14
443.61	1778.81
443.80	1804.55
443.98	1717.95
444.17	1741.36
444.35	1753.06
444.54	1783.49
444.73	1703.91
444.91	1657.10
445.10	1638.38
445.28	1614.97
445.47	1584.54
445.65	1495.60
445.84	1605.61
446.02	1748.38
446.21	1603.27
446.39	1675.82
446.58	1699.23
446.77	1633.69
446.95	1708.59
447.14	1762.42
447.32	1858.39
447.51	1792.85
447.69	1734.34
447.88	1830.30
448.06	1729.66
448.25	1781.15
448.43	1664.12
448.62	1753.06
448.80	1633.69
448.99	1764.76
449.17	1750.72
449.36	1769.44
449.54	1802.21
449.73	1842.00
449.91	1849.02
450.10	1832.64
450.28	1930.94
450.46	1963.71
450.65	1912.22
450.83	1884.13
451.02	1842.00
451.20	1834.98
451.39	1853.70
451.57	1830.30
451.76	1872.43
451.94	1900.52
452.13	1764.76
452.31	1760.08
452.49	1629.01
452.68	1682.85
452.86	1596.25
453.05	1769.44
453.23	1694.55
453.42	1685.19
453.60	1790.51
453.78	1837.32
453.97	1827.96
454.15	1886.47
454.34	1757.74
454.52	1694.55
454.70	1699.23
454.89	1748.38
455.07	1746.04
455.26	1736.68
455.44	1870.09
455.62	1893.49
455.81	1947.33
455.99	1926.26
456.17	1942.64
456.36	1930.94
456.54	2047.97
456.73	1802.21
456.91	1928.60
457.09	2036.27
457.28	2076.06
457.46	1837.32
457.64	1952.01
457.83	1909.88
458.01	1823.28
458.19	1846.68
458.38	1856.04
458.56	1921.58
458.74	1914.56
458.93	1888.81
459.11	1860.73
459.29	1895.83
459.48	1881.79
459.66	1888.81
459.84	1944.99
460.03	1827.96
460.21	1839.66
460.39	1991.80
460.57	2094.78
460.76	1970.73
460.94	2019.88
461.12	1912.22
461.31	2052.65
461.49	1947.33
461.67	1872.43
461.85	2087.76
462.04	2022.22
462.22	2094.78
462.40	2019.88
462.59	2169.68
462.77	2090.10
462.95	2031.58
463.13	1886.47
463.32	1940.30
463.50	1888.81
463.68	1937.96
463.86	1975.41
464.05	1963.71
464.23	1902.86
464.41	1881.79
464.59	1928.60
464.78	1994.14
464.96	1935.62
465.14	1781.15
465.32	1834.98
465.50	2062.01
465.69	1996.48
465.87	1954.35
466.05	1891.15
466.23	1879.45
466.41	1743.70
466.60	1888.81
466.78	1844.34
466.96	1860.73
467.14	1900.52
467.32	1837.32
467.51	1853.70
467.69	1832.64
467.87	1973.07
468.05	1991.80
468.23	1860.73
468.41	1891.15
468.60	2057.33
468.78	1944.99
468.96	1898.17
469.14	1837.32
469.32	1898.17
469.50	1891.15
469.69	1891.15
469.87	1853.70
470.05	1905.20
470.23	1867.75
470.41	1870.09
470.59	1921.58
470.77	1844.34
470.95	1949.67
471.14	1867.75
471.32	1975.41
471.50	2047.97
471.68	2054.99
471.86	2193.08
472.04	2146.27
472.22	2066.69
472.40	1923.92
472.58	1935.62
472.77	1966.05
472.95	1956.69
473.13	2092.44
473.31	2059.67
473.49	1937.96
473.67	2076.06
473.85	2169.68
474.03	2190.74
474.21	2296.07
474.39	2157.97
474.57	2249.25
474.75	2148.61
474.93	2162.66
475.12	2150.95
475.30	2040.95
475.48	2115.84
475.66	2092.44
475.84	2064.35
476.02	2085.42
476.20	2200.10
476.38	2157.97
476.56	2272.66
476.74	2275.00
476.92	2289.04
477.10	2291.38
477.28	2361.60
477.46	2305.43
477.64	2190.74
477.82	2417.77
478.00	2277.34
478.18	2305.43
478.36	2375.64
478.54	2289.04
478.72	2244.57
478.90	2352.24
479.08	2420.11
479.26	2583.95
479.44	2525.44
479.62	2541.82
479.80	2354.58
479.98	2567.57
480.16	2506.71
480.34	2331.17
480.52	2417.77
480.70	2455.22
480.88	2459.90
481.06	2616.72
481.24	2668.21
481.41	2661.19
481.59	2696.30
481.77	2689.28
481.95	2450.54
482.13	2602.68
482.31	2572.25
482.49	2672.89
482.67	2607.36
482.85	2588.63
483.03	2633.10
483.21	2731.41
483.39	2864.82
483.57	2745.45
483.74	2691.62
483.92	2724.38
484.10	2731.41
484.28	2698.64
484.46	2719.70
484.64	2782.90
484.82	2710.34
485.00	2635.44
485.18	2689.28
485.35	2593.31
485.53	2282.02
485.71	2125.21
485.89	2157.97
486.07	2242.23
486.25	2471.61
486.43	2626.08
486.61	2614.38
486.78	2616.72
486.96	2661.19
487.14	2607.36
487.32	2825.03
487.50	2897.58
487.68	2977.16
487.85	3084.83
488.03	2946.73
488.21	3033.33
488.39	2923.33
488.57	2876.52
488.75	2808.64
488.92	2825.03
489.10	3089.51
489.28	3187.81
489.46	3384.41
489.64	3342.28
489.81	3314.20
489.99	3272.07
490.17	3342.28
490.35	3283.77
490.53	3281.43
490.70	3166.74
490.88	3176.11
491.06	3272.07
491.24	3246.32
491.41	3183.13
491.59	3084.83
491.77	2932.69
491.95	3101.21
492.13	3166.74
492.30	3262.71
492.48	3524.85
492.66	3520.17
492.84	3581.02
493.01	3562.30
493.19	3398.46
493.37	3372.71
493.54	3321.22
493.72	3358.67
493.90	3382.07
494.08	3576.34
494.25	3606.77
494.43	3679.32
494.61	3782.31
494.79	3681.66
494.96	3660.60
495.14	3557.61
495.32	3440.59
495.49	3412.50
495.67	3613.79
495.85	3794.01
496.02	3721.45
496.20	3709.75
496.38	3810.39
496.55	3702.73
496.73	3716.77
496.91	3744.86
497.09	3906.35
497.26	3911.04
497.44	3798.69
497.62	3775.28
497.79	3620.81
497.97	3447.61
498.14	3452.29
498.32	3541.23
498.50	3660.60
498.67	3761.24
498.85	3772.94
499.03	3824.44
499.20	3812.73
499.38	3932.10
499.56	3873.59
499.73	3854.86
499.91	3761.24
500.08	3576.34
500.26	3545.91
500.44	3630.17
500.61	3733.15
500.79	3723.79
500.97	3592.72
501.14	3534.21
501.32	3480.38
501.49	3550.59
501.67	3700.39
501.84	3606.77
502.02	3735.50
502.20	3702.73
502.37	3758.90
502.55	3716.77
502.72	3775.28
502.90	3999.98
503.07	3765.92
503.25	3840.82
503.43	3627.83
503.60	3543.57
503.78	3529.53
503.95	3616.13
504.13	3779.97
504.30	3831.46
504.48	3913.38
504.65	3868.91
504.83	3812.73
505.01	3939.12
505.18	3922.74
505.36	4016.36
505.53	4142.75
505.71	4152.11
505.88	4142.75
506.06	3901.67
506.23	3747.20
506.41	3868.91
506.58	3934.44
506.76	3974.23
506.93	3868.91
507.11	3836.14
507.28	3822.09
507.46	3866.56
507.63	3751.88
507.81	3595.06
507.98	3618.47
508.16	3925.08
508.33	4140.41
508.50	3843.16
508.68	4126.36
508.85	4046.79
509.03	4035.08
509.20	4149.77
509.38	3808.05
509.55	3796.35
509.73	3726.13
509.90	3967.21
510.08	3826.78
510.25	3815.07
510.42	3948.48
510.60	3808.05
510.77	3967.21
510.95	3941.46
511.12	4004.66
511.30	4088.92
511.47	4152.11
511.64	3997.64
511.82	4187.22
511.99	3885.29
512.17	3833.80
512.34	3918.06
512.51	3815.07
512.69	3969.55
512.86	3805.71
513.04	3758.90
513.21	3840.82
513.38	3936.78
513.56	3702.73
513.73	3669.96
513.90	3700.39
514.08	3761.24
514.25	3735.50
514.43	3786.99
514.60	3981.25
514.77	3791.67
514.95	3904.01
515.12	3754.22
515.29	3768.26
515.47	3868.91
515.64	3962.53
515.81	3985.93
515.99	3817.41
516.16	3641.87
516.33	3260.37
516.51	3211.22
516.68	3047.38
516.85	3133.98
517.03	3094.19
517.20	3531.87
517.37	3623.15
517.54	3805.71
517.72	3770.60
517.89	3485.06
518.06	3152.70
518.24	3042.70
518.41	3620.81
518.58	3653.58
518.75	3665.28
518.93	3721.45
519.10	3719.11
519.27	3786.99
519.45	3836.14
519.62	3950.82
519.79	4002.32
519.96	4016.36
520.14	3822.09
520.31	3742.52
520.48	3695.71
520.65	3815.07
520.83	3894.65
521.00	4002.32
521.17	3957.85
521.34	3815.07
521.52	3974.23
521.69	3889.97
521.86	4107.64
522.03	3992.95
522.20	3845.50
522.38	3660.60
522.55	3583.36
522.72	3709.75
522.89	3723.79
523.07	3716.77
523.24	3866.56
523.41	3978.91
523.58	4063.17
523.75	4142.75
523.92	4091.26
524.10	4147.43
524.27	4145.09
524.44	4004.66
524.61	3925.08
524.78	3906.35
524.96	3864.22
525.13	3906.35
525.30	3941.46
525.47	4114.66
525.64	4011.68
525.81	3824.44
525.98	3808.05
526.16	3473.36
526.33	3370.37
526.50	3314.20
526.67	3260.37
526.84	3419.52
527.01	3449.95
527.18	3609.11
527.36	3847.84
527.53	3786.99
527.70	4004.66
527.87	3864.22
528.04	3892.31
528.21	3927.42
528.38	3908.69
528.55	4056.15
528.72	4126.36
528.89	4044.45
529.07	4224.67
529.24	3906.35
529.41	3857.20
529.58	3754.22
529.75	3810.39
529.92	3742.52
530.09	3915.72
530.26	3845.50
530.43	4170.83
530.60	3868.91
530.77	4070.19
530.94	4203.60
531.11	3988.27
531.28	3960.19
531.46	4018.70
531.63	3927.42
531.80	3943.80
531.97	3733.15
532.14	3733.15
532.31	3707.41
532.48	3496.76
532.65	3693.37
532.82	3597.40
532.99	3695.71
533.16	3866.56
533.33	3922.74
533.50	3836.14
533.67	3911.04
533.84	3803.37
534.01	3885.29
534.18	3794.01
534.35	3885.29
534.52	3784.65
534.69	3833.80
534.86	3943.80
535.03	4009.34
535.20	4081.89
535.37	4105.30
535.54	4023.38
535.71	4107.64
535.88	3974.23
536.05	3815.07
536.22	3822.09
536.38	3805.71
536.55	3744.86
536.72	3524.85
536.89	3756.56
537.06	3700.39
537.23	4049.13
537.40	3976.57
537.57	3859.54
537.74	3606.77
537.91	3896.99
538.08	3801.03
538.25	3702.73
538.42	3913.38
538.59	3943.80
538.75	3754.22
538.92	3681.66
539.09	3733.15
539.26	3583.36
539.43	3564.64
539.60	3543.57
539.77	3536.55
539.94	3639.53
540.11	3426.54
540.28	3468.67
540.44	3496.76
540.61	3501.44
540.78	3583.36
540.95	3538.89
541.12	3672.30
541.29	3819.75
541.46	3836.14
541.62	3859.54
541.79	3765.92
541.96	3679.32
542.13	3590.38
542.30	3740.18
542.47	3712.09
542.63	3691.02
542.80	3803.37
542.97	3604.42
543.14	3644.21
543.31	3613.79
543.48	3707.41
543.64	3824.44
543.81	3882.95
543.98	3810.39
544.15	3646.55
544.32	3618.47
544.48	3609.11
544.65	3702.73
544.82	3791.67
544.99	3740.18
545.16	3588.04
545.32	3620.81
545.49	3857.20
545.66	3906.35
545.83	3726.13
546.00	3669.96
546.16	3632.51
546.33	3623.15
546.50	3660.60
546.67	3674.64
546.83	3728.47
547.00	3545.91
547.17	3653.58
547.34	3513.14
547.50	3492.08
547.67	3578.68
547.84	3557.61
548.00	3658.26
548.17	3620.81
548.34	3646.55
548.51	3688.68
548.67	3665.28
548.84	3566.98
549.01	3637.19
549.18	3606.77
549.34	3585.70
549.51	3684.00
549.68	3627.83
549.84	3660.60
550.01	3637.19
550.18	3424.20
550.34	3578.68
550.51	3632.51
550.68	3566.98
550.84	3569.32
551.01	3578.68
551.18	3520.17
551.34	3592.72
551.51	3655.92
551.68	3747.20
551.84	3674.64
552.01	3674.64
552.18	3646.55
552.34	3538.89
552.51	3646.55
552.68	3379.73
552.84	3447.61
553.01	3492.08
553.18	3400.80
553.34	3618.47
553.51	3524.85
553.67	3501.44
553.84	3695.71
554.01	3536.55
554.17	3576.34
554.34	3641.87
554.51	3574.00
554.67	3749.54
554.84	3534.21
555.00	3501.44
555.17	3358.67
555.33	3543.57
555.50	3648.90
555.67	3485.06
555.83	3318.88
556.00	3489.74
556.16	3531.87
556.33	3468.67
556.50	3283.77
556.66	3372.71
556.83	3337.60
556.99	3281.43
557.16	3353.99
557.32	3412.50
557.49	3386.76
557.65	3489.74
557.82	3358.67
557.98	3321.22
558.15	3328.24
558.32	3365.69
558.48	3009.93
558.65	3129.30
558.81	3159.72
558.98	3155.04
559.14	3239.30
559.31	3428.88
559.47	3276.75
559.64	3283.77
559.80	3105.89
559.97	3236.96
560.13	3232.28
560.30	3309.52
560.46	3398.46
560.63	3510.80
560.79	3396.12
560.96	3251.00
561.12	3356.33
561.29	3265.05
561.45	3199.51
561.61	3173.77
561.78	3391.44
561.94	3342.28
562.11	3269.73
562.27	3171.43
562.44	3384.41
562.60	3185.47
562.77	3382.07
562.93	3302.50
563.10	3403.14
563.26	3220.58
563.42	3274.41
563.59	3101.21
563.75	3159.72
563.92	3260.37
564.08	3192.49
564.24	3197.17
564.41	3251.00
564.57	3227.60
564.74	3206.53
564.90	3194.83
565.07	3208.87
565.23	3098.87
565.39	3131.64
565.56	3103.55
565.72	3040.36
565.88	3077.80
566.05	3063.76
566.21	3110.57
566.38	3045.04
566.54	3110.57
566.70	3082.49
566.87	3190.15
567.03	3351.65
567.19	3236.96
567.36	3274.41
567.52	3073.12
567.68	3171.43
567.85	3049.72
568.01	2953.76
568.17	2918.65
568.34	2820.35
568.50	3087.17
568.66	2974.82
568.83	3033.33
568.99	3023.97
569.15	2979.50
569.32	3052.06
569.48	3000.57
569.64	3042.70
569.81	3000.57
569.97	2918.65
570.13	2913.97
570.30	2890.56
570.46	2822.69
570.62	2759.49
570.78	2792.26
570.95	2928.01
571.11	2960.78
571.27	2874.18
571.43	2935.03
571.60	3061.42
571.76	3000.57
571.92	3105.89
572.09	2967.80
572.25	2991.20
572.41	3014.61
572.57	3012.27
572.74	3098.87
572.90	3035.67
573.06	2963.12
573.22	2965.46
573.38	3014.61
573.55	2974.82
573.71	2958.44
573.87	2981.84
574.03	2939.71
574.20	2801.62
574.36	2935.03
574.52	2825.03
574.68	2850.77
574.84	2832.05
575.01	2820.35
575.17	2773.53
575.33	2750.13
575.49	2818.00
575.65	2771.19
575.82	2857.79
575.98	2803.96
576.14	2836.73
576.30	2876.52
576.46	2902.26
576.62	2848.43
576.79	2923.33
576.95	2700.98
577.11	2733.75
577.27	2782.90
577.43	2731.41
577.59	2752.47
577.75	2658.85
577.92	2675.23
578.08	2626.08
578.24	2757.15
578.40	2640.12
578.56	2710.34
578.72	2771.19
578.88	2899.92
579.04	2747.79
579.21	2916.31
579.37	2808.64
579.53	2792.26
579.69	2822.69
579.85	2829.71
580.01	2822.69
580.17	2782.90
580.33	2722.04
580.49	2633.10
580.65	2689.28
580.82	2703.32
580.98	2766.51
581.14	2775.88
581.30	2796.94
581.46	2782.90
581.62	2743.11
581.78	2724.38
581.94	2871.84
582.10	2853.11
582.26	2874.18
582.42	2911.63
582.58	2836.73
582.74	2712.68
582.90	2803.96
583.06	2752.47
583.22	2766.51
583.38	2675.23
583.54	2729.06
583.70	2754.81
583.86	2715.02
584.02	2750.13
584.18	2794.60
584.34	2736.09
584.50	2822.69
584.66	2738.43
584.82	2623.74
584.98	2661.19
585.14	2581.61
585.30	2565.23
585.46	2569.91
585.62	2553.52
585.78	2562.89
585.94	2595.65
586.10	2520.76
586.26	2597.99
586.42	2682.25
586.58	2717.36
586.74	2759.49
586.90	2665.87
587.06	2551.18
587.22	2597.99
587.38	2619.06
587.54	2635.44
587.70	2527.78
587.86	2642.46
588.02	2534.80
588.18	2429.48
588.34	2377.98
588.49	2197.76
588.65	2141.59
588.81	2221.17
588.97	2282.02
589.13	2134.57
589.29	2134.57
589.45	2155.63
589.61	2289.04
589.77	2413.09
589.93	2368.62
590.08	2445.86
590.24	2480.97
590.40	2417.77
590.56	2527.78
590.72	2441.18
590.88	2462.24
591.04	2368.62
591.20	2476.29
591.35	2502.03
591.51	2450.54
591.67	2462.24
591.83	2445.86
591.99	2387.35
592.15	2368.62
592.31	2478.63
592.46	2574.59
592.62	2455.22
592.78	2373.30
592.94	2417.77
593.10	2359.26
593.26	2340.54
593.41	2541.82
593.57	2370.96
593.73	2368.62
593.89	2445.86
594.05	2347.56
594.20	2324.15
594.36	2455.22
594.52	2328.83
594.68	2186.06
594.84	2415.43
594.99	2333.51
595.15	2401.39
595.31	2347.56
595.47	2284.36
595.62	2401.39
595.78	2415.43
595.94	2417.77
596.10	2422.45
596.25	2382.67
596.41	2368.62
596.57	2310.11
596.73	2401.39
596.88	2349.90
597.04	2466.92
597.20	2291.38
597.36	2424.80
597.51	2354.58
597.67	2307.77
597.83	2228.19
597.99	2394.37
598.14	2333.51
598.30	2296.07
598.46	2221.17
598.61	2389.69
598.77	2270.32
598.93	2258.62
599.09	2272.66
599.24	2300.75
599.40	2354.58
599.56	2267.98
599.71	2279.68
599.87	2174.36
600.03	2242.23
600.18	2338.20
600.34	2214.15
600.50	2207.13
600.65	2143.93
600.81	2293.72
600.97	2249.25
601.12	2244.57
601.28	2361.60
601.44	2272.66
601.59	2125.21
601.75	2253.94
601.91	2113.50
602.06	2176.70
602.22	2162.66
602.37	2204.78
602.53	2244.57
602.69	2275.00
602.84	2235.21
603.00	2148.61
603.16	2303.09
603.31	2282.02
603.47	2300.75
603.62	2176.70
603.78	2272.66
603.94	2204.78
604.09	2157.97
604.25	2200.10
604.40	2349.90
604.56	2186.06
604.71	2230.53
604.87	2172.02
605.03	2157.97
605.18	2169.68
605.34	2263.30
605.49	2251.60
605.65	2279.68
605.80	2277.34
605.96	2092.44
606.12	2249.25
606.27	2125.21
606.43	2085.42
606.58	2211.81
606.74	2155.63
606.89	2167.34
607.05	2157.97
607.20	2232.87
607.36	2136.91
607.51	2221.17
607.67	2172.02
607.82	2078.40
607.98	2143.93
608.13	2230.53
608.29	2207.13
608.44	2176.70
608.60	2136.91
608.75	2087.76
608.91	2045.63
609.06	2076.06
609.22	2148.61
609.37	2092.44
609.53	2069.03
609.68	2015.20
609.84	2019.88
609.99	2001.16
610.15	2029.24
610.30	2040.95
610.46	2118.18
610.61	2083.08
610.76	2115.84
610.92	2209.47
611.07	2078.40
611.23	2090.10
611.38	2062.01
611.54	2132.23
611.69	2069.03
611.84	2083.08
612.00	1863.07
612.15	1994.14
612.31	2015.20
612.46	1879.45
612.62	2038.61
612.77	1970.73
612.92	2064.35
613.08	2036.27
613.23	1937.96
613.39	1923.92
613.54	1907.54
613.69	1987.11
613.85	1940.30
614.00	1975.41
614.15	1942.64
614.31	1961.37
614.46	1998.82
614.62	1966.05
614.77	1935.62
614.92	1970.73
615.08	2008.18
615.23	1914.56
615.38	1930.94
615.54	1811.57
615.69	1877.11
615.84	1834.98
616.00	1879.45
616.15	1741.36
616.30	1898.17
616.46	1792.85
616.61	1783.49
616.76	1825.62
616.92	1863.07
617.07	1823.28
617.22	1778.81
617.37	1816.26
617.53	1844.34
617.68	1947.33
617.83	1842.00
617.99	1879.45
618.14	1853.70
618.29	1799.87
618.45	1842.00
618.60	1877.11
618.75	1790.51
618.90	1710.93
619.06	1771.79
619.21	1792.85
619.36	1818.60
619.51	1811.57
619.67	1778.81
619.82	1771.79
619.97	1879.45
620.12	1802.21
620.28	1867.75
620.43	1746.04
620.58	1774.13
620.73	1872.43
620.89	1834.98
621.04	1792.85
621.19	1827.96
621.34	1792.85
621.49	1797.53
621.65	1785.83
621.80	1757.74
621.95	1706.25
622.10	1778.81
622.25	1816.26
622.41	1685.19
622.56	1720.29
622.71	1727.32
622.86	1748.38
623.01	1692.21
623.16	1736.68
623.32	1720.29
623.47	1701.57
623.62	1774.13
623.77	1652.42
623.92	1678.16
624.07	1605.61
624.23	1570.50
624.38	1511.99
624.53	1586.88
624.68	1640.72
624.83	1645.40
624.98	1577.52
625.13	1614.97
625.29	1624.33
625.44	1607.95
625.59	1619.65
625.74	1659.44
625.89	1612.63
626.04	1638.38
626.19	1694.55
626.34	1619.65
626.49	1596.25
626.65	1638.38
626.80	1680.50
626.95	1636.03
627.10	1652.42
627.25	1533.05
627.40	1596.25
627.55	1495.60
627.70	1341.13
627.85	1472.20
628.00	1423.05
628.15	1526.03
628.30	1591.56
628.45	1600.93
628.60	1488.58
628.76	1526.03
628.91	1495.60
629.06	1535.39
629.21	1474.54
629.36	1460.49
629.51	1542.41
629.66	1465.18
629.81	1521.35
629.96	1533.05
630.11	1521.35
630.26	1511.99
630.41	1551.78
630.56	1565.82
630.71	1561.14
630.86	1467.52
631.01	1437.09
631.16	1432.41
631.31	1413.68
631.46	1378.58
631.61	1437.09
631.76	1497.94
631.91	1409.00
632.06	1507.30
632.21	1542.41
632.36	1481.56
632.51	1444.11
632.66	1413.68
632.81	1519.01
632.96	1465.18
633.10	1476.88
633.25	1521.35
633.40	1418.36
633.55	1369.21
633.70	1416.02
633.85	1423.05
634.00	1476.88
634.15	1474.54
634.30	1483.90
634.45	1446.45
634.60	1373.89
634.75	1427.73
634.90	1551.78
635.05	1465.18
635.19	1423.05
635.34	1514.33
635.49	1430.07
635.64	1329.42
635.79	1404.32
635.94	1373.89
636.09	1479.22
636.24	1418.36
636.39	1483.90
636.53	1451.13
636.68	1418.36
636.83	1357.51
636.98	1287.29
637.13	1493.26
637.28	1444.11
637.43	1371.55
637.57	1451.13
637.72	1341.13
637.87	1334.11
638.02	1409.00
638.17	1296.66
638.32	1369.21
638.46	1409.00
638.61	1448.79
638.76	1387.94
638.91	1430.07
639.06	1324.74
639.20	1310.70
639.35	1341.13
639.50	1348.15
639.65	1352.83
639.80	1371.55
639.94	1284.95
640.09	1409.00
640.24	1350.49
640.39	1240.48
640.54	1373.89
640.68	1364.53
640.83	1345.81
640.98	1336.45
641.13	1231.12
641.27	1228.78
641.42	1336.45
641.57	1423.05
641.72	1238.14
641.86	1233.46
642.01	1355.17
642.16	1294.32
642.31	1327.08
642.45	1306.02
642.60	1296.66
642.75	1203.04
642.90	1341.13
643.04	1193.67
643.19	1291.98
643.34	1284.95
643.48	1109.41
643.63	1181.97
643.78	1247.51
643.93	1392.62
644.07	1259.21
644.22	1280.27
644.37	1371.55
644.51	1231.12
644.66	1181.97
644.81	1172.61
644.95	1268.57
645.10	1172.61
645.25	1233.46
645.39	1139.84
645.54	1179.63
645.69	1207.72
645.83	1235.80
645.98	1212.40
646.13	1200.69
646.27	1170.27
646.42	1224.10
646.57	1114.10
646.71	1179.63
646.86	1188.99
647.00	1114.10
647.15	1221.76
647.30	1102.39
647.44	1053.24
647.59	1198.35
647.74	1163.25
647.88	1146.86
648.03	1083.67
648.17	1193.67
648.32	1137.50
648.47	1137.50
648.61	1125.80
648.76	1181.97
648.90	1118.78
649.05	1050.90
649.20	1029.84
649.34	1116.44
649.49	1032.18
649.63	1057.92
649.78	1130.48
649.92	1181.97
650.07	1160.91
650.21	1097.71
650.36	1181.97
650.51	1029.84
650.65	1214.74
650.80	1100.05
650.94	1235.80
651.09	1118.78
651.23	1167.93
651.38	1088.35
651.52	1055.58
651.67	1111.75
651.81	1174.95
651.96	1128.14
652.10	1095.37
652.25	1018.13
652.39	1090.69
652.54	1137.50
652.68	1095.37
652.83	1032.18
652.97	1118.78
653.12	1060.26
653.26	1109.41
653.41	1151.54
653.55	1214.74
653.70	1090.69
653.84	1053.24
653.99	1118.78
654.13	1053.24
654.27	1022.81
654.42	1071.97
654.56	1048.56
654.71	985.37
654.85	999.41
655.00	1011.11
655.14	992.39
655.29	950.26
655.43	1015.79
655.57	973.66
655.72	814.51
655.86	779.40
656.01	575.77
656.15	697.48
656.30	774.72
656.44	821.53
656.58	856.64
656.73	833.23
656.87	908.13
657.01	884.72
657.16	980.68
657.30	1011.11
657.45	1022.81
657.59	940.90
657.73	1008.77
657.88	987.71
658.02	1041.54
658.16	1055.58
658.31	1001.75
658.45	1121.12
658.60	954.94
658.74	1076.65
658.88	983.02
659.03	994.73
659.17	929.19
659.31	1053.24
659.46	966.64
659.60	992.39
659.74	903.45
659.89	940.90
660.03	1039.20
660.17	1118.78
660.32	929.19
660.46	992.39
660.60	983.02
660.74	1015.79
660.89	1041.54
661.03	1008.77
661.17	896.43
661.32	973.66
661.46	990.05
661.60	990.05
661.74	1029.84
661.89	1022.81
662.03	980.68
662.17	1006.43
662.31	1020.47
662.46	903.45
662.60	992.39
662.74	997.07
662.88	1004.09
663.03	931.53
663.17	933.87
663.31	917.49
663.45	898.77
663.60	917.49
663.74	917.49
663.88	917.49
664.02	931.53
664.17	901.11
664.31	915.15
664.45	887.06
664.59	957.28
664.73	931.53
664.88	868.34
665.02	961.96
665.16	980.68
665.30	882.38
665.44	858.98
665.59	896.43
665.73	837.91
665.87	842.59
666.01	828.55
666.15	802.80
666.29	891.74
666.44	936.21
666.58	999.41
666.72	887.06
666.86	889.40
667.00	931.53
667.14	922.17
667.28	844.93
667.43	882.38
667.57	863.66
667.71	873.02
667.85	884.72
667.99	844.93
668.13	849.61
668.27	814.51
668.41	786.42
668.56	835.57
668.70	765.36
668.84	844.93
668.98	943.24
669.12	870.68
669.26	819.19
669.40	898.77
669.54	844.93
669.68	861.32
669.82	788.76
669.96	835.57
670.10	788.76
670.25	861.32
670.39	812.17
670.53	840.25
670.67	763.01
670.81	709.18
670.95	741.95
671.09	765.36
671.23	746.63
671.37	798.12
671.51	748.97
671.65	730.25
671.79	702.16
671.93	718.54
672.07	882.38
672.21	788.76
672.35	711.52
672.49	784.08
672.63	737.27
672.77	819.19
672.91	781.74
673.05	727.91
673.19	753.65
673.33	798.12
673.47	737.27
673.61	688.12
673.75	833.23
673.89	807.48
674.03	732.59
674.17	734.93
674.31	753.65
674.45	599.18
674.59	748.97
674.73	727.91
674.87	683.44
675.01	786.42
675.15	648.33
675.29	748.97
675.43	713.86
675.56	645.99
675.70	702.16
675.84	741.95
675.98	627.26
676.12	732.59
676.26	732.59
676.40	629.60
676.54	699.82
676.68	631.94
676.82	723.23
676.96	601.52
677.10	667.05
677.23	678.76
677.37	615.56
677.51	770.04
677.65	671.73
677.79	692.80
677.93	589.82
678.07	638.97
678.21	648.33
678.34	669.39
678.48	636.63
678.62	610.88
678.76	655.35
678.90	547.69
679.04	613.22
679.18	533.64
679.31	547.69
679.45	664.71
679.59	620.24
679.73	676.41
679.87	636.63
680.00	613.22
680.14	636.63
680.28	547.69
680.42	582.79
680.56	538.32
680.70	526.62
680.83	564.07
680.97	564.07
681.11	543.00
681.25	517.26
681.39	648.33
681.52	517.26
681.66	580.45
681.80	519.60
681.94	615.56
682.07	535.98
682.21	585.13
682.35	519.60
682.49	531.30
682.62	477.47
682.76	475.13
682.90	463.43
683.04	489.17
683.17	531.30
683.31	521.94
683.45	521.94
683.59	578.11
683.72	550.03
683.86	510.24
684.00	496.19
684.13	498.53
684.27	472.79
684.41	528.96
684.55	547.69
684.68	454.06
684.82	449.38
684.96	454.06
685.09	496.19
685.23	372.15
685.37	421.30
685.50	440.02
685.64	507.90
685.78	472.79
685.91	479.81
686.05	465.77
686.19	496.19
686.32	276.18
686.46	341.72
686.60	257.46
686.73	238.73
686.87	245.76
687.01	205.97
687.14	255.12
687.28	175.54
687.42	191.92
687.55	210.65
687.69	320.65
687.82	182.56
687.96	308.95
688.10	252.78
688.23	322.99
688.37	278.52
688.50	313.63
688.64	299.59
688.78	313.63
688.91	227.03
689.05	241.08
689.18	325.33
689.32	234.05
689.46	280.86
689.59	215.33
689.73	250.44
689.86	234.05
690.00	297.25
690.13	304.27
690.27	283.20
690.41	252.78
690.54	332.36
690.68	304.27
690.81	285.55
690.95	187.24
691.08	290.23
691.22	292.57
691.35	250.44
691.49	278.52
691.62	344.06
691.76	259.80
691.89	191.92
692.03	390.87
692.16	367.46
692.30	313.63
692.43	306.61
692.57	334.70
692.70	238.73
692.84	227.03
692.97	255.12
693.11	156.82
693.24	217.67
693.38	236.39
693.51	215.33
693.65	187.24
693.78	203.63
693.92	304.27
694.05	166.18
694.19	294.91
694.32	119.37
694.45	212.99
694.59	210.65
694.72	255.12
694.86	269.16
694.99	278.52
695.13	236.39
695.26	124.05
695.39	229.37
695.53	208.31
695.66	152.13
695.80	187.24
695.93	201.29
696.07	196.60
696.20	217.67
696.33	273.84
696.47	292.57
696.60	308.95
696.73	269.16
696.87	224.69
697.00	259.80
697.14	252.78
697.27	271.50
697.40	269.16
697.54	259.80
697.67	248.10
697.80	187.24
697.94	276.18
698.07	264.48
698.21	110.01
698.34	175.54
698.47	182.56
698.61	196.60
698.74	175.54
698.87	255.12
699.01	168.52
699.14	138.09
699.27	201.29
699.40	220.01
699.54	224.69
699.67	161.50
699.80	194.26
699.94	147.45
700.07	161.50
700.20	201.29
700.34	156.82
700.47	180.22
700.60	180.22
700.73	154.48
700.87	173.20
701.00	163.84
701.13	191.92
701.26	131.07
701.40	152.13
701.53	147.45
701.66	149.79
701.79	79.58
701.93	131.07
702.06	91.28
702.19	128.73
702.32	128.73
702.46	166.18
702.59	98.30
702.72	121.71
702.85	107.66
702.99	135.75
703.12	173.20
703.25	159.16
703.38	182.56
703.51	140.43
703.65	126.39
703.78	156.82
703.91	70.22
704.04	126.39
704.17	112.35
704.31	98.30
704.44	100.64
704.57	114.69
704.70	88.94
704.83	105.32
704.96	112.35
705.10	138.09
705.23	88.94
>>>>>End Processed Spectral Data<<<<<
