SpectraSuite Data File
++++++++++++++++++++++++++++++++++++
Date: Mon Oct 07 14:53:29 GMT-05:00 2013
User: price-jones
Dark Spectrum Present: No
Reference Spectrum Present: No
Number of Sampled Component Spectra: 1
Spectrometers: USB2+H05261
Integration Time (usec): 100000 (USB2+H05261)
Spectra Averaged: 1 (USB2+H05261)
Boxcar Smoothing: 0 (USB2+H05261)
Correct for Electrical Dark: No (USB2+H05261)
Strobe/Lamp Enabled: No (USB2+H05261)
Correct for Detector Non-linearity: No (USB2+H05261)
Correct for Stray Light: No (USB2+H05261)
Number of Pixels in Processed Spectrum: 2048
>>>>>Begin Processed Spectral Data<<<<<
365.73	0.00
365.92	0.00
366.12	0.00
366.32	0.00
366.52	0.00
366.72	0.00
366.91	0.00
367.11	0.00
367.31	0.00
367.51	0.00
367.70	0.00
367.90	0.00
368.10	0.00
368.30	0.00
368.49	0.00
368.69	0.00
368.89	0.00
369.09	0.00
369.28	0.00
369.48	0.00
369.68	0.00
369.87	0.00
370.07	0.00
370.27	0.00
370.47	634.29
370.66	3157.38
370.86	3669.96
371.06	3976.57
371.25	4107.64
371.45	3857.20
371.65	3375.05
371.84	3112.91
372.04	3215.90
372.24	3747.20
372.44	3913.38
372.63	3779.97
372.83	3400.80
373.03	3119.93
373.22	2883.54
373.42	3033.33
373.62	3480.38
373.81	3854.86
374.01	3744.86
374.21	3265.05
374.40	3206.53
374.60	3321.22
374.79	3634.85
374.99	4135.73
375.19	4552.34
375.38	4557.02
375.58	4402.55
375.78	4311.27
375.97	4390.84
376.17	4620.22
376.37	4573.41
376.56	4559.36
376.76	4851.93
376.95	5170.24
377.15	5558.77
377.35	5771.76
377.54	6052.63
377.74	6148.59
377.93	6129.86
378.13	6052.63
378.33	5764.74
378.52	5240.46
378.72	5071.94
378.91	4912.78
379.11	4975.98
379.31	4709.16
379.50	4578.09
379.70	5050.88
379.89	5476.85
380.09	5806.87
380.28	6057.31
380.48	6038.58
380.68	5905.17
380.87	5741.33
381.07	5397.28
381.26	5055.56
381.46	4739.58
381.65	4564.04
381.85	4503.19
382.04	4173.18
382.24	3946.14
382.43	3679.32
382.63	3686.34
382.83	3669.96
383.02	3817.41
383.22	3531.87
383.41	3791.67
383.61	3904.01
383.80	4353.40
384.00	5074.28
384.19	5743.67
384.39	6146.25
384.58	5916.87
384.78	6076.03
384.97	5858.36
385.17	5507.28
385.36	5387.91
385.56	5146.84
385.75	5219.39
385.95	5823.25
386.14	5991.77
386.34	6237.53
386.53	5963.68
386.72	5699.20
386.92	5675.80
387.11	5902.83
387.31	6164.97
387.50	5935.60
387.70	5809.21
387.89	5846.66
388.09	5912.19
388.28	5961.34
388.48	5905.17
388.67	6450.52
388.86	7236.94
389.06	7466.31
389.25	7981.23
389.45	8098.25
389.64	8107.62
389.84	7868.88
390.03	7761.22
390.22	7838.45
390.42	8091.23
390.61	8557.00
390.81	8992.34
391.00	9310.65
391.19	9224.05
391.39	8882.33
391.58	8411.89
391.78	7999.95
391.97	7791.64
392.16	7358.64
392.36	6544.14
392.55	5210.03
392.75	4086.58
392.94	3489.74
393.13	3318.88
393.33	4159.13
393.52	5144.50
393.71	6342.85
393.91	7152.68
394.10	7562.27
394.29	8308.90
394.49	8861.27
394.68	9734.29
394.88	9685.14
395.07	10183.67
395.26	9914.51
395.46	9799.82
395.65	9179.58
395.84	7983.57
396.04	6918.62
396.23	5664.10
396.42	4669.37
396.62	4411.91
396.81	5270.89
397.00	6743.08
397.19	8379.12
397.39	9776.42
397.58	11009.88
397.77	11597.35
397.97	12367.39
398.16	12514.84
398.35	12519.53
398.55	13118.70
398.74	13729.58
398.93	13912.14
399.12	13912.14
399.32	13139.77
399.51	13654.69
399.70	14342.80
399.90	14373.23
400.09	14265.57
400.28	13827.88
400.47	14319.40
400.67	15157.31
400.86	15468.60
401.05	15473.28
401.24	15740.10
401.44	15609.03
401.63	15779.89
401.82	15932.03
402.01	15665.21
402.21	16233.96
402.40	15917.98
402.59	15735.42
402.78	14771.12
402.97	14363.87
403.17	14965.39
403.36	16189.49
403.55	16645.89
403.74	16786.32
403.93	16049.05
404.13	14881.13
404.32	14354.51
404.51	15150.29
404.70	16453.97
404.89	16613.12
405.09	15831.38
405.28	15791.59
405.47	15576.27
405.66	15482.64
405.85	15059.01
406.05	14731.33
406.24	15073.05
406.43	15557.54
406.62	16414.18
406.81	16203.53
407.00	15641.80
407.20	15503.71
407.39	15447.54
407.58	16194.17
407.77	16872.92
407.96	17329.33
408.15	17586.79
408.34	17823.18
408.54	18480.87
408.73	18714.92
408.92	18160.22
409.11	17699.13
409.30	16861.22
409.49	16032.67
409.68	14970.07
409.87	14640.05
410.07	15325.83
410.26	16442.26
410.45	17586.79
410.64	17867.65
410.83	18417.68
411.02	19129.20
411.21	19906.26
411.40	19311.76
411.59	19660.50
411.78	19463.90
411.98	19197.07
412.17	19812.63
412.36	19190.05
412.55	19026.21
412.74	18515.98
412.93	18382.57
413.12	18420.02
413.31	20088.82
413.50	20240.95
413.69	20842.47
413.88	20137.97
414.07	19304.74
414.26	19665.18
414.45	20458.62
414.64	20540.54
414.83	20587.35
415.02	19887.53
415.22	20042.01
415.41	20776.94
415.60	20987.58
415.79	22092.32
415.98	22539.36
416.17	22490.21
416.36	22251.47
416.55	21502.50
416.74	20795.66
416.93	20255.00
417.12	20425.86
417.31	20704.38
417.50	20961.84
417.69	21472.07
417.88	21303.56
418.07	21216.96
418.26	21106.95
418.45	21350.37
418.64	22089.98
418.83	22597.87
419.02	22735.96
419.21	22375.52
419.39	21252.06
419.58	20166.06
419.77	20606.08
419.96	21322.28
420.15	22260.84
420.34	23290.67
420.53	23854.74
420.72	24400.08
420.91	24159.01
421.10	23920.28
421.29	23594.94
421.48	22948.95
421.67	23854.74
421.86	23414.72
422.05	21729.53
422.24	19475.60
422.43	19091.75
422.61	21118.65
422.80	23143.22
422.99	22913.84
423.18	22129.77
423.37	21979.97
423.56	21631.23
423.75	22134.45
423.94	22724.26
424.13	21504.84
424.32	21727.19
424.50	21956.57
424.69	21310.58
424.88	21792.73
425.07	21453.35
425.26	21502.50
425.45	21029.71
425.64	20992.26
425.83	20830.77
426.01	22249.13
426.20	22607.23
426.39	22857.67
426.58	20533.52
426.77	19468.58
426.96	18448.10
427.15	19173.67
427.33	20688.00
427.52	21907.41
427.71	21752.94
427.90	21582.08
428.09	21422.92
428.28	20985.24
428.46	20273.72
428.65	19852.42
428.84	20320.53
429.03	21282.49
429.22	19548.15
429.40	18747.69
429.59	17116.34
429.78	14963.04
429.97	14853.04
430.16	15098.80
430.34	15342.21
430.53	15094.11
430.72	15716.70
430.91	17172.51
431.10	20362.66
431.28	23662.82
431.47	25537.59
431.66	25741.21
431.85	23573.88
432.03	22125.08
432.22	21027.37
432.41	21589.10
432.60	24596.69
432.79	24776.91
432.97	25685.04
433.16	25074.16
433.35	23030.87
433.54	20489.05
433.72	19452.19
433.91	19910.94
434.10	22562.76
434.28	24144.97
434.47	24891.60
434.66	24610.73
434.85	24140.29
435.03	23765.80
435.22	24709.04
435.41	25989.31
435.59	25993.99
435.78	26419.97
435.97	27068.30
436.16	27269.58
436.34	26878.71
436.53	26441.03
436.72	26345.07
436.90	24706.70
437.09	25095.22
437.28	24418.81
437.46	25462.69
437.65	24973.52
437.84	23417.06
438.02	21706.13
438.21	21495.48
438.40	22525.32
438.58	24552.22
438.77	25212.25
438.96	25429.92
439.14	26759.34
439.33	27442.78
439.52	27410.01
439.70	27087.02
439.89	26178.89
440.08	25675.68
440.26	25387.79
440.45	26757.00
440.63	28512.41
440.82	29720.12
441.01	29242.65
441.19	29158.39
441.38	29848.85
441.57	30408.24
441.75	31175.94
441.94	31424.03
442.12	30761.66
442.31	31648.72
442.50	31281.26
442.68	31318.71
442.87	30515.90
443.05	29865.24
443.24	30850.60
443.43	30953.58
443.61	32095.77
443.80	32470.25
443.98	30195.25
444.17	30340.36
444.35	32182.37
444.54	32685.58
444.73	32514.72
444.91	31058.91
445.10	29696.72
445.28	28374.31
445.47	27711.94
445.65	28273.67
445.84	28994.56
446.02	29759.91
446.21	30604.84
446.39	30588.46
446.58	31215.72
446.77	31386.58
446.95	31784.48
447.14	32526.42
447.32	33469.66
447.51	32409.40
447.69	30850.60
447.88	30675.06
448.06	31611.28
448.25	31709.58
448.43	32563.87
448.62	31543.40
448.80	31447.44
448.99	31676.81
449.17	31562.12
449.36	31693.19
449.54	33338.59
449.73	33923.72
449.91	34279.49
450.10	35061.22
450.28	35438.05
450.46	35164.21
450.65	35386.56
450.83	34890.37
451.02	34595.46
451.20	34080.54
451.39	34223.31
451.57	33771.59
451.76	33902.66
451.94	33120.92
452.13	32788.56
452.31	31473.18
452.49	29844.17
452.68	30387.18
452.86	30501.86
453.05	30948.90
453.23	31662.77
453.42	32414.08
453.60	33134.96
453.78	33542.22
453.97	33146.67
454.15	33530.51
454.34	32767.50
454.52	33207.52
454.70	31679.15
454.89	32748.78
455.07	32503.02
455.26	33116.24
455.44	34389.49
455.62	34738.23
455.81	35150.17
455.99	34778.02
456.17	34263.10
456.36	34235.02
456.54	35632.32
456.73	35728.28
456.91	36137.87
457.09	36275.96
457.28	36971.10
457.46	35955.31
457.64	34862.28
457.83	34300.55
458.01	33696.69
458.19	34462.05
458.38	34567.37
458.56	35988.08
458.74	35545.72
458.93	34466.73
459.11	34565.03
459.29	34246.72
459.48	34911.43
459.66	34511.20
459.84	35290.60
460.03	35646.36
460.21	35395.92
460.39	35866.37
460.57	36175.32
460.76	36594.28
460.94	36528.74
461.12	36151.91
461.31	36540.44
461.49	35835.94
461.67	36088.72
461.85	37193.45
462.04	37132.60
462.22	37626.45
462.40	36926.63
462.59	36854.08
462.77	37322.18
462.95	37015.57
463.13	36603.64
463.32	36371.92
463.50	36304.05
463.68	36397.67
463.86	36025.53
464.05	35571.46
464.23	35222.72
464.41	35021.44
464.59	34469.07
464.78	35896.80
464.96	36215.11
465.14	35644.02
465.32	36353.20
465.50	37359.63
465.69	38003.28
465.87	37092.81
466.05	36149.57
466.23	34071.18
466.41	33600.73
466.60	34616.52
466.78	34398.85
466.96	35318.68
467.14	35805.52
467.32	36112.13
467.51	36421.08
467.69	34436.30
467.87	35494.22
468.05	35737.64
468.23	35772.75
468.41	35978.72
468.60	36037.23
468.78	36067.66
468.96	35665.08
469.14	37036.64
469.32	36858.76
469.50	34866.96
469.69	35274.21
469.87	35002.71
470.05	34822.49
470.23	34991.01
470.41	35101.01
470.59	35557.42
470.77	35634.66
470.95	36664.49
471.14	36861.10
471.32	36467.89
471.50	38684.37
471.68	38536.92
471.86	39274.19
472.04	39615.91
472.22	39480.16
472.40	37743.48
472.58	37139.62
472.77	36870.46
472.95	37500.06
473.13	38724.16
473.31	37659.22
473.49	37689.65
473.67	38623.52
473.85	38855.23
474.03	39765.70
474.21	39728.25
474.39	40130.83
474.57	40149.55
474.75	40552.12
474.93	39974.01
475.12	39433.35
475.30	39210.99
475.48	39473.13
475.66	40226.79
475.84	39669.74
476.02	39227.38
476.20	38401.17
476.38	39379.51
476.56	40451.48
476.74	41193.43
476.92	40893.84
477.10	42139.00
477.28	42745.20
477.46	43276.51
477.64	43461.41
477.82	42869.25
478.00	43873.34
478.18	43000.32
478.36	42864.57
478.54	42747.54
478.72	42871.59
478.90	44367.20
479.08	44842.32
479.26	45787.90
479.44	45799.60
479.62	45443.84
479.80	45261.28
479.98	45638.11
480.16	45853.44
480.34	45502.35
480.52	46026.63
480.70	46094.51
480.88	46110.89
481.06	46958.17
481.24	47072.85
481.41	48224.40
481.59	48535.69
481.77	48222.06
481.95	47767.99
482.13	47613.52
482.31	47332.65
482.49	48161.20
482.67	48264.19
482.85	48193.97
483.03	48729.95
483.21	49223.81
483.39	49223.81
483.57	48491.22
483.74	48037.16
483.92	48748.68
484.10	48456.11
484.28	49628.72
484.46	50003.20
484.64	50564.93
484.82	49652.12
485.00	48872.73
485.18	48303.98
485.35	47370.10
485.53	44027.82
485.71	40402.33
485.89	39803.15
486.07	41755.16
486.25	45310.43
486.43	47372.44
486.61	48062.90
486.78	47915.45
486.96	48367.17
487.14	50211.51
487.32	50642.17
487.50	51639.24
487.68	52254.80
487.85	52722.91
488.03	52755.68
488.21	52479.49
488.39	51648.60
488.57	51175.81
488.75	50724.09
488.92	52058.20
489.10	53996.16
489.28	55089.19
489.46	55646.24
489.64	55381.76
489.81	55662.62
489.99	55327.92
490.17	55199.19
490.35	55920.08
490.53	55309.20
490.70	54962.80
490.88	54703.00
491.06	55578.36
491.24	55742.20
491.41	54714.70
491.59	53153.57
491.77	52617.58
491.95	53560.82
492.13	54829.39
492.30	55571.34
492.48	56556.70
492.66	57048.22
492.84	57027.15
493.01	56697.14
493.19	56184.56
493.37	55969.23
493.54	55711.77
493.72	56184.56
493.90	57275.25
494.08	58047.63
494.25	58033.58
494.43	58379.98
494.61	58740.42
494.79	58815.32
494.96	58569.57
495.14	58017.20
495.32	57127.80
495.49	56563.73
495.67	57361.85
495.85	58789.58
496.02	59260.02
496.20	58976.82
496.38	58585.95
496.55	58574.25
496.73	58876.18
496.91	58983.84
497.09	59489.40
497.26	59660.26
497.44	59288.11
497.62	58752.13
497.79	57932.94
497.97	56877.36
498.14	57148.86
498.32	58056.99
498.50	58906.60
498.67	59552.59
498.85	59262.36
499.03	59442.59
499.20	59803.03
499.38	59678.98
499.56	59671.96
499.73	59168.74
499.91	58822.34
500.08	58305.09
500.26	57570.16
500.44	58216.14
500.61	58571.91
500.79	58639.78
500.97	58274.66
501.14	57972.73
501.32	57876.77
501.49	57937.62
501.67	58148.27
501.84	58506.37
502.02	58820.00
502.20	59264.70
502.37	59105.55
502.55	59260.02
502.72	59894.31
502.90	60350.71
503.07	59877.93
503.25	59664.94
503.43	58927.67
503.60	58401.05
503.78	57649.74
503.95	57937.62
504.13	59276.41
504.30	60111.98
504.48	60109.64
504.65	59620.47
504.83	59529.19
505.01	60088.57
505.18	60505.19
505.36	61003.72
505.53	61038.83
505.71	61263.52
505.88	61333.74
506.06	60788.39
506.23	60463.06
506.41	60025.38
506.58	60224.32
506.76	60329.65
506.93	60041.76
507.11	59983.25
507.28	60221.98
507.46	59770.26
507.63	59135.98
507.81	59068.10
507.98	59208.53
508.16	59709.41
508.33	60456.04
508.50	60776.69
508.68	61038.83
508.85	61293.95
509.03	61216.71
509.20	61193.31
509.38	60582.43
509.55	59987.93
509.73	59955.16
509.90	60566.04
510.08	60889.04
510.25	60708.82
510.42	60385.82
510.60	60374.12
510.77	60570.72
510.95	61317.35
511.12	61172.24
511.30	61532.68
511.47	61619.28
511.64	61710.56
511.82	61282.25
511.99	60561.36
512.17	60193.90
512.34	59856.86
512.51	60048.78
512.69	60229.01
512.86	60282.84
513.04	60788.39
513.21	60940.53
513.38	60418.59
513.56	60032.40
513.73	59477.69
513.90	59622.81
514.08	59894.31
514.25	59969.21
514.43	60261.77
514.60	60217.30
514.77	60542.64
514.95	60552.00
515.12	60313.26
515.29	60608.17
515.47	60987.34
515.64	61340.76
515.81	61038.83
515.99	60254.75
516.16	59224.92
516.33	56863.32
516.51	55679.00
516.68	54848.11
516.85	54635.13
517.03	54714.70
517.20	57127.80
517.37	59489.40
517.54	60533.28
517.72	60079.21
517.89	57993.79
518.06	55650.92
518.24	56081.58
518.41	57785.49
518.58	59152.36
518.75	59409.82
518.93	59519.82
519.10	59463.65
519.27	59985.59
519.45	60030.06
519.62	60729.88
519.79	61134.79
519.96	60889.04
520.14	60381.14
520.31	59601.74
520.48	59639.19
520.65	60051.12
520.83	60896.06
521.00	61305.65
521.17	60933.51
521.34	60488.80
521.52	60734.56
521.69	61244.80
521.86	61497.58
522.03	61408.64
522.20	60371.78
522.38	59421.52
522.55	59032.99
522.72	60079.21
522.89	59955.16
523.07	60221.98
523.24	60374.12
523.41	61214.37
523.58	61530.34
523.75	62080.37
523.92	61799.50
524.10	61808.87
524.27	61719.93
524.44	61509.28
524.61	61535.02
524.78	61272.88
524.96	61235.44
525.13	61132.45
525.30	61488.21
525.47	61867.38
525.64	61736.31
525.81	61127.77
525.98	59936.44
526.16	58459.56
526.33	57844.00
526.50	57565.48
526.67	57366.53
526.84	57958.69
527.01	58834.05
527.18	59559.61
527.36	60402.21
527.53	60905.42
527.70	61331.40
527.87	60870.31
528.04	60369.44
528.21	60755.63
528.38	61420.34
528.55	61928.23
528.72	62274.63
528.89	62330.81
529.07	62159.95
529.24	61520.98
529.41	60767.33
529.58	60163.47
529.75	60533.28
529.92	60994.36
530.09	61350.12
530.26	61705.88
530.43	62080.37
530.60	62124.84
530.77	62349.53
530.94	62302.72
531.11	61900.15
531.28	61588.86
531.46	61268.20
531.63	61588.86
531.80	61279.91
531.97	60949.89
532.14	60364.76
532.31	59487.06
532.48	58824.68
532.65	58894.90
532.82	59618.13
532.99	60617.53
533.16	61043.51
533.33	61616.94
533.50	61284.59
533.67	60594.13
533.84	60343.69
534.01	60580.09
534.18	60748.60
534.35	60914.78
534.52	60652.64
534.69	61029.47
534.86	61083.30
535.03	61647.37
535.20	61907.17
535.37	62204.42
535.54	62298.04
535.71	61930.58
535.88	61771.42
536.05	61024.79
536.22	60741.58
536.38	60266.45
536.55	60219.64
536.72	59718.77
536.89	59585.36
537.06	60425.61
537.23	61085.64
537.40	61286.93
537.57	61279.91
537.74	60994.36
537.91	60987.34
538.08	60889.04
538.25	61073.94
538.42	61195.65
538.59	60973.30
538.75	60430.29
538.92	60221.98
539.09	59980.91
539.26	59803.03
539.43	59786.64
539.60	59634.51
539.77	60013.68
539.94	60009.00
540.11	59089.16
540.28	58499.35
540.44	58829.37
540.61	59178.10
540.78	59061.08
540.95	59728.13
541.12	59906.01
541.29	60090.91
541.46	60626.90
541.62	60502.85
541.79	60530.93
541.96	59732.81
542.13	59578.34
542.30	60065.17
542.47	60233.69
542.63	60133.04
542.80	59922.40
542.97	60081.55
543.14	59791.33
543.31	59746.86
543.48	60233.69
543.64	61134.79
543.81	61415.66
543.98	60992.02
544.15	60673.71
544.32	59908.35
544.48	60032.40
544.65	60423.27
544.82	60680.73
544.99	60608.17
545.16	60224.32
545.32	59826.43
545.49	60678.39
545.66	60858.61
545.83	60645.62
546.00	60388.16
546.16	59866.22
546.33	59987.93
546.50	60210.28
546.67	60636.26
546.83	60343.69
547.00	60090.91
547.17	59468.33
547.34	58979.16
547.50	59049.38
547.67	59440.24
547.84	59430.88
548.00	59980.91
548.17	60184.54
548.34	60179.85
548.51	60006.65
548.67	60278.16
548.84	60320.29
549.01	60336.67
549.18	59980.91
549.34	60011.34
549.51	59985.59
549.68	60009.00
549.84	59608.76
550.01	59796.01
550.18	59447.27
550.34	59620.47
550.51	59636.85
550.68	59845.16
550.84	59370.03
551.01	59295.13
551.18	59379.39
551.34	59667.28
551.51	60126.02
551.68	60137.72
551.84	60130.70
552.01	60048.78
552.18	59887.29
552.34	59105.55
552.51	58742.77
552.68	58859.79
552.84	59093.85
553.01	59409.82
553.18	59253.00
553.34	59442.59
553.51	59470.67
553.67	59817.07
553.84	60095.60
554.01	59648.55
554.17	59646.21
554.34	59599.40
554.51	59810.05
554.67	59943.46
554.84	59966.87
555.00	59597.06
555.17	59365.35
555.33	59355.99
555.50	59297.47
555.67	59384.07
555.83	59182.79
556.00	58848.09
556.16	58831.71
556.33	58583.61
556.50	58396.37
556.66	58513.39
556.83	58319.13
556.99	58150.61
557.16	58471.26
557.32	58609.35
557.49	58885.54
557.65	58787.24
557.82	58803.62
557.98	58651.48
558.15	58202.10
558.32	57331.42
558.48	56821.19
558.65	56980.34
558.81	57319.72
558.98	57726.97
559.14	57822.93
559.31	57841.66
559.47	57996.13
559.64	57668.46
559.80	57155.88
559.97	57518.67
560.13	57492.92
560.30	58319.13
560.46	58972.14
560.63	59049.38
560.79	59091.51
560.96	58810.64
561.12	57986.77
561.29	56853.95
561.45	56973.32
561.61	57633.35
561.78	58192.74
561.94	57820.59
562.11	57614.63
562.27	57600.58
562.44	57832.30
562.60	58188.06
562.77	58447.86
562.93	58347.21
563.10	58255.93
563.26	57469.51
563.42	57893.15
563.59	57371.21
563.75	57649.74
563.92	57535.05
564.08	57570.16
564.24	57757.40
564.41	57900.17
564.57	57668.46
564.74	57659.10
564.90	57645.05
565.07	57209.71
565.23	56992.04
565.39	56732.25
565.56	56477.13
565.72	56093.28
565.88	56317.97
566.05	56591.81
566.21	56786.08
566.38	56706.50
566.54	56999.07
566.70	57331.42
566.87	57380.57
567.03	57481.22
567.19	57661.44
567.36	57516.32
567.52	57448.45
567.68	57286.95
567.85	56360.10
568.01	56243.07
568.17	55917.74
568.34	55976.25
568.50	55569.00
568.66	55735.18
568.83	56320.31
568.99	56191.58
569.15	56507.55
569.32	56376.48
569.48	56278.18
569.64	56147.11
569.81	55842.84
569.97	55908.38
570.13	55669.64
570.30	55107.91
570.46	54995.57
570.62	54478.31
570.78	54003.18
570.95	54518.10
571.11	55061.10
571.27	55166.43
571.43	55526.87
571.60	55891.99
571.76	55798.37
571.92	56336.69
572.09	56678.41
572.25	56371.80
572.41	56278.18
572.57	56039.45
572.74	56170.52
572.90	55606.45
573.06	56009.02
573.22	55812.41
573.38	55922.42
573.55	56034.77
573.71	56123.71
573.87	55627.51
574.03	55735.18
574.20	55458.99
574.36	55466.02
574.52	55290.48
574.68	55143.02
574.84	54815.35
575.01	54298.09
575.17	54213.83
575.33	54302.77
575.49	54941.74
575.65	55023.65
575.82	54630.44
575.98	54380.01
576.14	54679.60
576.30	54937.05
576.46	55164.09
576.62	54983.86
576.79	55121.96
576.95	54782.58
577.11	54887.90
577.27	54714.70
577.43	54543.84
577.59	54384.69
577.75	54380.01
577.92	53408.68
578.08	53193.36
578.24	53167.61
578.40	53565.50
578.56	53949.35
578.72	53818.28
578.88	54223.19
579.04	54141.27
579.21	54447.88
579.37	54490.01
579.53	54717.04
579.69	54209.15
579.85	54588.31
580.01	54616.40
580.17	54024.25
580.33	53642.74
580.49	53820.62
580.65	54440.86
580.82	54365.96
580.98	54251.28
581.14	54225.53
581.30	54309.79
581.46	54073.40
581.62	54288.73
581.78	54534.48
581.94	54672.57
582.10	54578.95
582.26	54499.37
582.42	54642.15
582.58	54719.38
582.74	54511.08
582.90	54564.91
583.06	54335.54
583.22	54513.42
583.38	54272.34
583.54	54284.04
583.70	54085.10
583.86	54328.52
584.02	54169.36
584.18	54061.69
584.34	54155.32
584.50	53970.41
584.66	53895.52
584.82	53495.28
584.98	53429.75
585.14	52851.64
585.30	52495.88
585.46	51941.17
585.62	52051.17
585.78	52608.22
585.94	52512.26
586.10	53045.90
586.26	52633.97
586.42	53191.01
586.58	53600.61
586.74	53277.61
586.90	53277.61
587.06	53092.71
587.22	53174.63
587.38	52685.46
587.54	52711.20
587.70	52465.45
587.86	52058.20
588.02	51772.65
588.18	51683.71
588.34	50927.72
588.49	48952.30
588.65	46323.88
588.81	46253.67
588.97	46600.07
589.13	46300.48
589.29	46335.59
589.45	46988.60
589.61	48472.49
589.77	49734.04
589.93	50312.16
590.08	50880.91
590.24	51318.59
590.40	51309.22
590.56	51512.85
590.72	51154.75
590.88	50972.19
591.04	50497.06
591.20	50635.15
591.35	50513.44
591.51	50906.65
591.67	50569.61
591.83	51016.66
591.99	50658.56
592.15	50852.82
592.31	51002.61
592.46	50857.50
592.62	50614.08
592.78	50534.51
592.94	50632.81
593.10	50316.84
593.26	50789.62
593.41	50937.08
593.57	50789.62
593.73	50553.23
593.89	50082.78
594.05	49954.05
594.20	49635.74
594.36	49443.82
594.52	48947.62
594.68	48776.76
594.84	49038.90
594.99	50122.57
595.15	49799.58
595.31	49886.18
595.47	50188.11
595.62	50017.25
595.78	50380.03
595.94	50464.29
596.10	50614.08
596.25	50138.96
596.41	49656.81
596.57	49907.24
596.73	50071.08
596.88	49996.18
597.04	50199.81
597.20	49439.14
597.36	49254.23
597.51	49392.33
597.67	49600.63
597.83	49563.18
597.99	49254.23
598.14	48589.52
598.30	48863.36
598.46	48341.42
598.61	49155.93
598.77	48795.49
598.93	49214.44
599.09	49251.89
599.24	49261.26
599.40	49071.67
599.56	49336.15
599.71	49270.62
599.87	49518.71
600.03	48835.28
600.18	49069.33
600.34	48781.45
600.50	48460.79
600.65	48020.77
600.81	48425.68
600.97	48467.81
601.12	48533.35
601.28	48163.54
601.44	48334.40
601.59	47828.85
601.75	47098.60
601.91	47192.22
602.06	47543.30
602.22	47772.67
602.37	47737.57
602.53	48243.12
602.69	48299.30
602.84	48306.32
603.00	48697.19
603.16	48863.36
603.31	48797.83
603.47	49216.78
603.62	48383.55
603.78	48442.07
603.94	48245.46
604.09	48308.66
604.25	48030.13
604.40	47880.34
604.56	48135.46
604.71	48439.73
604.87	48177.59
605.03	47693.10
605.18	48046.52
605.34	47456.70
605.49	47681.39
605.65	47971.62
605.80	47784.38
605.96	47419.25
606.12	46934.76
606.27	47447.34
606.43	46768.58
606.58	47660.33
606.74	47416.91
606.89	47632.24
607.05	47583.09
607.20	47365.42
607.36	47346.70
607.51	47004.98
607.67	46646.88
607.82	46597.73
607.98	46539.21
608.13	46433.89
608.29	45731.73
608.44	46047.70
608.60	45708.32
608.75	46188.13
608.91	46108.55
609.06	45935.35
609.22	45918.97
609.37	45722.37
609.53	46246.65
609.68	45911.95
609.84	44959.35
609.99	44772.11
610.15	44947.65
610.30	44903.18
610.46	45572.57
610.61	45476.61
610.76	45771.52
610.92	46312.18
611.07	46461.97
611.23	45914.29
611.38	46078.13
611.54	45654.49
611.69	45095.10
611.84	44442.09
612.00	44329.75
612.15	43966.96
612.31	44800.19
612.46	44399.96
612.62	45006.16
612.77	44982.76
612.92	45237.87
613.08	44601.25
613.23	43538.65
613.39	42178.79
613.54	42532.22
613.69	42918.40
613.85	42983.94
614.00	43257.78
614.15	43629.93
614.31	43400.55
614.46	43959.94
614.62	43503.54
614.77	43615.88
614.92	43976.33
615.08	43157.14
615.23	43845.26
615.38	43150.12
615.54	42431.57
615.69	41560.89
615.84	41034.27
616.00	40779.15
616.15	41120.87
616.30	41364.29
616.46	41041.29
616.61	40886.82
616.76	41553.87
616.92	41542.17
617.07	41701.32
617.22	42295.82
617.37	42373.06
617.53	42396.46
617.68	42761.59
617.83	43133.73
617.99	42532.22
618.14	42478.38
618.29	42616.47
618.45	41881.55
618.60	41565.57
618.75	41600.68
618.90	40968.74
619.06	41593.66
619.21	41752.82
619.36	42216.24
619.51	41813.67
619.67	41448.55
619.82	41371.31
619.97	42246.67
620.12	41530.47
620.28	41621.75
620.43	42391.78
620.58	42267.73
620.73	42080.49
620.89	41523.44
621.04	41230.88
621.19	40760.43
621.34	40577.87
621.49	40533.40
621.65	40596.59
621.80	40687.87
621.95	40673.83
622.10	40959.38
622.25	40582.55
622.41	40158.91
622.56	40023.16
622.71	39445.05
622.86	39058.86
623.01	39440.37
623.16	39868.69
623.32	39236.74
623.47	39856.98
623.62	39945.92
623.77	38843.53
623.92	38878.64
624.07	38237.33
624.23	38143.71
624.38	37801.99
624.53	38471.39
624.68	38492.45
624.83	38038.39
624.98	37773.91
625.13	37605.39
625.29	37684.97
625.44	37727.10
625.59	37921.36
625.74	38349.68
625.89	37827.74
626.04	38483.09
626.19	38220.95
626.34	37900.29
626.49	38309.89
626.65	37574.96
626.80	38068.81
626.95	37780.93
627.10	37509.43
627.25	36720.66
627.40	35999.78
627.55	35030.80
627.70	34794.40
627.85	35056.54
628.00	35267.19
628.15	36383.63
628.30	36634.06
628.45	36568.53
628.60	36044.25
628.76	35922.54
628.91	35901.48
629.06	35908.50
629.21	35782.11
629.36	35868.71
629.51	35316.34
629.66	35241.45
629.81	34850.58
629.96	34773.34
630.11	35449.75
630.26	35594.87
630.41	35789.13
630.56	35864.03
630.71	35688.49
630.86	35833.60
631.01	35564.44
631.16	35051.86
631.31	34637.59
631.46	33802.02
631.61	34464.39
631.76	34775.68
631.91	35016.75
632.06	35058.88
632.21	35487.20
632.36	35173.57
632.51	35054.20
632.66	35751.68
632.81	35314.00
632.96	35178.25
633.10	35014.41
633.25	34384.81
633.40	34462.05
633.55	34567.37
633.70	34848.24
633.85	34829.51
634.00	34834.19
634.15	34389.49
634.30	34286.51
634.45	34707.80
634.60	34656.31
634.75	34909.09
634.90	34778.02
635.05	34508.86
635.19	34359.06
635.34	34195.23
635.49	34415.24
635.64	34195.23
635.79	33926.07
635.94	33900.32
636.09	33968.19
636.24	34050.11
636.39	34195.23
636.53	34272.46
636.68	34333.32
636.83	34239.70
636.98	34653.97
637.13	34300.55
637.28	34911.43
637.43	34705.46
637.57	34338.00
637.72	33900.32
637.87	34176.50
638.02	33661.58
638.17	34061.82
638.32	34092.24
638.46	34412.90
638.61	33883.94
638.76	33247.31
638.91	33275.40
639.06	32634.09
639.20	33359.66
639.35	33116.24
639.50	32826.01
639.65	32362.59
639.80	32769.84
639.94	33039.00
640.09	32582.60
640.24	32706.65
640.39	32381.31
640.54	32463.23
640.68	32238.54
640.83	31887.46
640.98	31709.58
641.13	32023.21
641.27	32507.70
641.42	32184.71
641.57	31880.44
641.72	32088.74
641.86	31850.01
642.01	31878.10
642.16	32247.90
642.31	32290.03
642.45	32563.87
642.60	31887.46
642.75	31473.18
642.90	31709.58
643.04	31489.57
643.19	31489.57
643.34	31641.70
643.48	31463.82
643.63	31637.02
643.78	31307.01
643.93	31985.76
644.07	31917.89
644.22	31859.37
644.37	32240.88
644.51	31630.00
644.66	30866.98
644.81	31384.24
644.95	30946.56
645.10	31131.47
645.25	30319.30
645.39	30520.59
645.54	30583.78
645.69	30412.92
645.83	30022.05
645.98	29696.72
646.13	29750.55
646.27	30031.41
646.42	29736.51
646.57	29792.68
646.71	29729.48
646.86	29352.66
647.00	29603.10
647.15	29333.93
647.30	29163.08
647.44	29008.60
647.59	29252.02
647.74	29039.03
647.88	29078.82
648.03	28645.82
648.17	29090.52
648.32	29151.37
648.47	29329.25
648.61	29181.80
648.76	29380.74
648.90	28222.18
649.05	27351.50
649.20	26815.52
649.34	27136.17
649.49	26815.52
649.63	27377.25
649.78	28229.20
649.92	28341.55
650.07	29149.03
650.21	29022.64
650.36	28973.49
650.51	28833.06
650.65	29081.16
650.80	29350.32
650.94	28701.99
651.09	28449.21
651.23	28063.02
651.38	27700.24
651.52	27545.76
651.67	27316.39
651.81	28072.39
651.96	28130.90
652.10	28184.73
652.25	28442.19
652.39	27924.93
652.54	28280.69
652.68	28278.35
652.83	28140.26
652.97	28411.76
653.12	28023.23
653.26	28168.35
653.41	28048.98
653.55	28350.91
653.70	27999.83
653.84	28056.00
653.99	27929.61
654.13	27274.26
654.27	27243.84
654.42	26792.11
654.56	26897.44
654.71	26867.01
654.85	26656.36
655.00	26202.30
655.14	26169.53
655.29	25553.97
655.43	25252.04
655.57	24496.05
655.72	22473.82
655.86	20931.41
656.01	19552.84
656.15	20201.16
656.30	20919.71
656.44	22473.82
656.58	23222.80
656.73	24170.71
656.87	24725.42
657.01	24521.79
657.16	25895.69
657.30	25593.76
657.45	26352.09
657.59	26384.86
657.73	26293.58
657.88	26216.34
658.02	26195.28
658.16	26216.34
658.31	26361.45
658.45	26314.64
658.60	26092.29
658.74	25902.71
658.88	25460.35
659.03	25216.93
659.17	25090.54
659.31	25291.83
659.46	25465.03
659.60	26082.93
659.74	26057.18
659.89	25900.37
660.03	26089.95
660.17	26122.72
660.32	25804.41
660.46	25624.18
660.60	25570.35
660.74	25893.35
660.89	25811.43
661.03	25532.90
661.17	25645.25
661.32	25425.24
661.46	25441.62
661.60	25834.83
661.74	25736.53
661.89	26008.03
662.03	25549.29
662.17	25401.83
662.31	25163.10
662.46	25565.67
662.60	25207.57
662.74	25006.28
662.88	24755.85
663.03	24460.94
663.17	24510.09
663.31	23948.36
663.45	24755.85
663.60	24758.19
663.74	24107.52
663.88	24311.14
664.02	24098.16
664.17	24421.15
664.31	23929.64
664.45	24376.68
664.59	24477.32
664.73	24592.01
664.88	24432.85
665.02	24283.06
665.16	24065.39
665.30	23847.72
665.44	24233.91
665.59	23875.80
665.73	23859.42
665.87	23718.99
666.01	23101.09
666.15	23314.08
666.29	23063.64
666.44	23536.43
666.58	23285.99
666.72	23316.42
666.86	23367.91
667.00	23681.54
667.14	23854.74
667.28	23398.34
667.43	23248.54
667.57	22771.07
667.71	22988.74
667.85	23063.64
667.99	23166.62
668.13	22871.72
668.27	23012.15
668.41	22602.55
668.56	22698.52
668.70	22937.25
668.84	23042.57
668.98	22759.37
669.12	22668.09
669.26	22518.29
669.40	22427.01
669.54	22162.53
669.68	22436.38
669.82	22361.48
669.96	22216.36
670.10	21940.18
670.25	21666.34
670.39	21722.51
670.53	21909.75
670.67	21745.92
670.81	21654.64
670.95	21853.58
671.09	21345.69
671.23	21322.28
671.37	21106.95
671.51	21240.36
671.65	21226.32
671.79	21163.12
671.93	21104.61
672.07	21104.61
672.21	21151.42
672.35	21397.18
672.49	21231.00
672.63	21130.36
672.77	20875.24
672.91	20793.32
673.05	20648.21
673.19	20966.52
673.33	20732.47
673.47	20823.75
673.61	20627.14
673.75	20650.55
673.89	20566.29
674.03	20521.82
674.17	20636.50
674.31	20334.57
674.45	20374.36
674.59	20086.48
674.73	20304.15
674.87	19999.88
675.01	19688.59
675.15	19941.36
675.29	20091.16
675.43	19882.85
675.56	19714.33
675.70	19775.19
675.84	19896.89
675.98	19255.59
676.12	19681.56
676.26	19819.66
676.40	19506.02
676.54	19410.06
676.68	19206.44
676.82	18965.36
676.96	19302.40
677.10	19302.40
677.23	19115.16
677.37	19150.26
677.51	18974.72
677.65	18853.02
677.79	18696.20
677.93	18628.32
678.07	18679.82
678.21	18457.46
678.34	18178.94
678.48	18061.91
678.62	18366.18
678.76	18059.57
678.90	18319.37
679.04	17996.38
679.18	18111.07
679.31	17951.91
679.45	17738.92
679.59	17877.01
679.73	18045.53
679.87	17902.76
680.00	17518.91
680.14	17532.95
680.28	17408.90
680.42	17334.01
680.56	17427.63
680.70	17071.87
680.83	16989.95
680.97	17032.08
681.11	17043.78
681.25	17043.78
681.39	16912.71
681.52	17043.78
681.66	16737.17
681.80	16865.90
681.94	17099.95
682.07	16840.15
682.21	17074.21
682.35	16517.16
682.49	16152.04
682.62	16367.37
682.76	16257.36
682.90	16248.00
683.04	16098.20
683.17	16084.16
683.31	15861.81
683.45	16114.59
683.59	15695.63
683.72	15623.08
683.86	15246.25
684.00	15056.67
684.13	15552.86
684.27	15389.02
684.41	15393.70
684.55	15573.92
684.68	15482.64
684.82	15466.26
684.96	15206.46
685.09	15215.82
685.23	14827.29
685.37	14874.10
685.50	14881.13
685.64	14705.59
685.78	14403.66
685.91	14548.77
686.05	14518.34
686.19	14228.12
686.32	13394.89
686.46	11786.94
686.60	10296.02
686.73	9762.37
686.87	9284.91
687.01	9137.45
687.14	9156.18
687.28	9378.53
687.42	9863.02
687.55	10230.48
687.69	10960.73
687.82	11503.73
687.96	11880.56
688.10	12140.36
688.23	11796.30
688.37	11407.77
688.50	11473.31
688.64	11176.06
688.78	10902.22
688.91	10888.17
689.05	10864.77
689.18	11037.97
689.32	10658.80
689.46	10925.62
689.59	11295.43
689.73	11253.30
689.86	10965.41
690.00	11375.00
690.13	11337.56
690.27	11218.19
690.41	11229.89
690.54	11206.48
690.68	11276.70
690.81	11330.53
690.95	11510.75
691.08	11302.45
691.22	11360.96
691.35	11417.13
691.49	11304.79
691.62	11342.24
691.76	11489.69
691.89	11573.95
692.03	11260.32
692.16	10944.34
692.30	11044.99
692.43	11096.48
692.57	10998.18
692.70	10707.95
692.84	10590.92
692.97	10635.39
693.11	10607.31
693.24	10752.42
693.38	10537.09
693.51	10499.64
693.65	10541.77
693.78	10235.16
693.92	10225.80
694.05	10197.71
694.19	10284.31
694.32	10305.38
694.45	10155.58
694.59	10167.29
694.72	10068.98
694.86	10061.96
694.99	10066.64
695.13	10101.75
695.26	10036.22
695.39	9898.13
695.53	9753.01
695.66	9661.73
695.80	9790.46
695.93	9940.26
696.07	9975.36
696.20	9933.23
696.33	10040.90
696.47	10284.31
696.60	10314.74
696.73	10232.82
696.87	10202.40
697.00	10157.92
697.14	10160.27
697.27	9837.27
697.40	9727.27
697.54	9727.27
697.67	9357.46
697.80	9266.18
697.94	9357.46
698.07	9219.37
698.21	9172.56
698.34	9181.92
698.47	9027.45
698.61	8812.12
698.74	8877.65
698.87	8959.57
699.01	8648.28
699.14	8905.74
699.27	8966.59
699.40	8950.21
699.54	8781.69
699.67	8917.44
699.80	8538.27
699.94	8676.37
700.07	8301.88
700.20	8367.42
700.34	8194.22
700.47	7983.57
700.60	8318.26
700.73	8156.77
700.87	8292.52
701.00	8339.33
701.13	8140.38
701.26	8011.65
701.40	8021.02
701.53	7822.07
701.66	8025.70
701.79	8035.06
701.93	7812.71
702.06	7950.80
702.19	7793.98
702.32	7756.54
702.46	7616.10
702.59	7726.11
702.72	7709.72
702.85	7744.83
702.99	7789.30
703.12	7889.95
703.25	7651.21
703.38	7630.15
703.51	7695.68
703.65	7679.30
703.78	7349.28
703.91	7517.80
704.04	7478.01
704.17	7407.80
704.31	7461.63
704.44	7588.02
704.57	7442.90
704.70	7428.86
704.83	7447.58
704.96	7262.68
705.10	7379.71
705.23	7075.44
>>>>>End Processed Spectral Data<<<<<
