SpectraSuite Data File
++++++++++++++++++++++++++++++++++++
Date: Mon Oct 07 14:53:34 GMT-05:00 2013
User: price-jones
Dark Spectrum Present: No
Reference Spectrum Present: No
Number of Sampled Component Spectra: 1
Spectrometers: USB2+H05261
Integration Time (usec): 100000 (USB2+H05261)
Spectra Averaged: 1 (USB2+H05261)
Boxcar Smoothing: 0 (USB2+H05261)
Correct for Electrical Dark: No (USB2+H05261)
Strobe/Lamp Enabled: No (USB2+H05261)
Correct for Detector Non-linearity: No (USB2+H05261)
Correct for Stray Light: No (USB2+H05261)
Number of Pixels in Processed Spectrum: 2048
>>>>>Begin Processed Spectral Data<<<<<
365.73	0.00
365.92	0.00
366.12	0.00
366.32	0.00
366.52	0.00
366.72	0.00
366.91	0.00
367.11	0.00
367.31	0.00
367.51	0.00
367.70	0.00
367.90	0.00
368.10	0.00
368.30	0.00
368.49	0.00
368.69	0.00
368.89	0.00
369.09	0.00
369.28	0.00
369.48	0.00
369.68	0.00
369.87	0.00
370.07	0.00
370.27	0.00
370.47	627.26
370.66	3169.09
370.86	3742.52
371.06	4030.40
371.25	4053.81
371.45	3714.43
371.65	3442.93
371.84	3033.33
372.04	3426.54
372.24	3655.92
372.44	3896.99
372.63	3728.47
372.83	3571.66
373.03	3143.34
373.22	2825.03
373.42	3033.33
373.62	3459.31
373.81	3716.77
374.01	3737.84
374.21	3379.73
374.40	3232.28
374.60	3316.54
374.79	3726.13
374.99	4196.58
375.19	4533.62
375.38	4613.20
375.58	4339.35
375.78	4381.48
375.97	4442.34
376.17	4594.47
376.37	4524.26
376.56	4786.40
376.76	4868.31
376.95	5167.90
377.15	5589.20
377.35	5820.91
377.54	5912.19
377.74	5991.77
377.93	6235.19
378.13	6033.90
378.33	5701.54
378.52	5268.55
378.72	5048.54
378.91	5053.22
379.11	4837.89
379.31	4812.14
379.50	4713.84
379.70	5179.61
379.89	5647.71
380.09	5977.73
380.28	6406.05
380.48	6106.46
380.68	5912.19
380.87	5919.21
381.07	5364.51
381.26	4933.85
381.46	4610.86
381.65	4517.23
381.85	4468.08
382.04	4348.72
382.24	3922.74
382.43	3728.47
382.63	3641.87
382.83	3840.82
383.02	3784.65
383.22	3728.47
383.41	3684.00
383.61	4039.76
383.80	4645.96
384.00	4952.57
384.19	5867.72
384.39	6235.19
384.58	6017.52
384.78	6024.54
384.97	5907.51
385.17	5633.67
385.36	5266.21
385.56	5121.09
385.75	5287.27
385.95	5771.76
386.14	6256.25
386.34	6333.49
386.53	6047.94
386.72	5696.86
386.92	5551.75
387.11	5865.38
387.31	6160.29
387.50	6160.29
387.70	6132.20
387.89	5755.38
388.09	5916.87
388.28	5874.74
388.48	6101.78
388.67	6530.09
388.86	6958.41
389.06	7667.60
389.25	7934.42
389.45	7981.23
389.64	8037.40
389.84	7985.91
390.03	7733.13
390.22	7955.48
390.42	8060.80
390.61	8549.98
390.81	9310.65
391.00	9430.02
391.19	9315.33
391.39	9095.32
391.58	8528.91
391.78	8002.29
391.97	7805.69
392.16	7384.39
392.36	6525.41
392.55	5404.30
392.75	4369.78
392.94	3611.45
393.13	3442.93
393.33	4025.72
393.52	5338.76
393.71	6345.19
393.91	7281.41
394.10	7894.63
394.29	8482.10
394.49	9179.58
394.68	9947.28
394.88	9816.21
395.07	10441.13
395.26	10010.47
395.46	9748.33
395.65	9100.00
395.84	8241.03
396.04	6970.12
396.23	5575.16
396.42	4760.65
396.62	4622.56
396.81	5380.89
397.00	6799.26
397.19	8439.97
397.39	9858.34
397.58	11101.16
397.77	12013.97
397.97	12346.33
398.16	12332.28
398.35	12798.05
398.55	13371.48
398.74	13973.00
398.93	14047.90
399.12	13734.26
399.32	13355.10
399.51	13673.41
399.70	14459.83
399.90	14691.54
400.09	14572.18
400.28	14085.34
400.47	14670.48
400.67	15124.54
400.86	15744.78
401.05	15274.34
401.24	15538.82
401.44	15873.51
401.63	16152.04
401.82	16109.91
402.01	15887.56
402.21	16208.21
402.40	16020.97
402.59	15688.61
402.78	15094.11
402.97	14810.91
403.17	15047.30
403.36	15967.13
403.55	16791.00
403.74	17177.19
403.93	16339.28
404.13	15002.83
404.32	14616.65
404.51	15377.32
404.70	16688.02
404.89	16376.73
405.09	16023.31
405.28	15461.58
405.47	15489.67
405.66	15868.83
405.85	15496.69
406.05	15026.24
406.24	15236.89
406.43	15637.12
406.62	16512.48
406.81	16648.23
407.00	15770.53
407.20	15424.13
407.39	15648.82
407.58	16432.90
407.77	17146.76
407.96	17673.39
408.15	17881.69
408.34	18099.36
408.54	18963.02
408.73	19129.20
408.92	18658.75
409.11	17804.46
409.30	17153.79
409.49	16240.98
409.68	15211.14
409.87	14429.40
410.07	15728.40
410.26	16624.83
410.45	18090.00
410.64	18174.26
410.83	18721.95
411.02	19286.01
411.21	19967.11
411.40	19906.26
411.59	19995.20
411.78	19571.56
411.98	19452.19
412.17	19999.88
412.36	19339.85
412.55	19342.19
412.74	19005.15
412.93	18581.51
413.12	18881.10
413.31	20592.03
413.50	20585.01
413.69	21090.57
413.88	20491.39
414.07	19613.69
414.26	19969.45
414.45	20648.21
414.64	20938.43
414.83	20987.58
415.02	20327.55
415.22	20566.29
415.41	21015.67
415.60	21329.30
415.79	22778.09
415.98	23164.28
416.17	22993.42
416.36	22431.69
416.55	21961.25
416.74	21333.98
416.93	20465.64
417.12	20641.18
417.31	21071.84
417.50	21441.65
417.69	22129.77
417.88	22141.47
418.07	21713.15
418.26	21202.91
418.45	21750.60
418.64	22272.54
418.83	23183.01
419.02	22637.66
419.21	22852.99
419.39	21654.64
419.58	20765.23
419.77	20659.91
419.96	21783.37
420.15	22684.47
420.34	23372.59
420.53	24465.62
420.72	24589.67
420.91	24786.27
421.10	24126.24
421.29	23676.86
421.48	22953.63
421.67	24151.99
421.86	23880.49
422.05	21799.75
422.24	19906.26
422.43	19604.33
422.61	21596.12
422.80	23379.61
422.99	23637.07
423.18	22562.76
423.37	22148.49
423.56	21867.63
423.75	22504.25
423.94	23276.63
424.13	21778.68
424.32	21998.70
424.50	21972.95
424.69	21528.25
424.88	22038.48
425.07	21881.67
425.26	21528.25
425.45	21675.70
425.64	21399.52
425.83	21081.21
426.01	22164.87
426.20	23381.95
426.39	22951.29
426.58	21226.32
426.77	19417.08
426.96	18803.86
427.15	19358.57
427.33	21371.43
427.52	21956.57
427.71	22068.91
427.90	21862.94
428.09	21544.63
428.28	21282.49
428.46	20540.54
428.65	20121.59
428.84	20755.87
429.03	21151.42
429.22	20004.56
429.40	19084.73
429.59	17326.99
429.78	15133.90
429.97	15126.88
430.16	15337.53
430.34	15426.47
430.53	15499.03
430.72	15754.15
430.91	17486.14
431.10	20493.73
431.28	23988.15
431.47	26279.54
431.66	26508.91
431.85	24128.58
432.03	22553.40
432.22	21139.72
432.41	21944.86
432.60	24545.20
432.79	25579.71
432.97	25666.31
433.16	25818.45
433.35	23133.86
433.54	21039.08
433.72	19552.84
433.91	20147.33
434.10	22728.94
434.28	24294.76
434.47	25886.32
434.66	25500.14
434.85	24353.27
435.03	24161.35
435.22	25259.06
435.41	26642.32
435.59	26356.77
435.78	26707.85
435.97	27758.75
436.16	27896.85
436.34	27255.54
436.53	26829.56
436.72	26829.56
436.90	25551.63
437.09	25406.52
437.28	24992.24
437.46	26026.76
437.65	25724.83
437.84	24065.39
438.02	21968.27
438.21	21759.96
438.40	23330.46
438.58	25029.69
438.77	25687.38
438.96	25762.28
439.14	27082.34
439.33	27545.76
439.52	27901.53
439.70	27665.13
439.89	27063.61
440.08	26160.17
440.26	26068.89
440.45	27009.78
440.63	28608.37
440.82	30148.44
441.01	29862.90
441.19	29237.97
441.38	29741.19
441.57	31037.84
441.75	31466.16
441.94	31742.35
442.12	31398.29
442.31	31831.29
442.50	31660.43
442.68	31676.81
442.87	31136.15
443.05	30857.62
443.24	31065.93
443.43	31557.44
443.61	32584.94
443.80	32982.83
443.98	30766.34
444.17	30775.70
444.35	32802.61
444.54	33441.57
444.73	32954.74
444.91	31674.47
445.10	30422.28
445.28	28947.75
445.47	28748.80
445.65	28671.56
445.84	29865.24
446.02	30976.99
446.21	31194.66
446.39	31552.76
446.58	31768.09
446.77	32161.30
446.95	32327.48
447.14	33312.84
447.32	33652.22
447.51	32891.55
447.69	31943.63
447.88	31290.62
448.06	31892.14
448.25	32629.41
448.43	33144.33
448.62	32151.94
448.80	31950.65
448.99	32301.73
449.17	32734.73
449.36	32797.93
449.54	34305.23
449.73	34185.86
449.91	34689.08
450.10	35744.66
450.28	35857.01
450.46	36147.23
450.65	36086.38
450.83	35407.62
451.02	34682.06
451.20	34789.72
451.39	34595.46
451.57	34455.03
451.76	34478.43
451.94	34462.05
452.13	33823.08
452.31	31945.97
452.49	30618.89
452.68	30979.33
452.86	30951.24
453.05	31505.95
453.23	32217.47
453.42	33455.62
453.60	33823.08
453.78	34417.58
453.97	34136.71
454.15	33991.60
454.34	33401.79
454.52	33326.89
454.70	32746.44
454.89	33329.23
455.07	33708.40
455.26	33832.44
455.44	35044.84
455.62	35494.22
455.81	35749.34
455.99	35805.52
456.17	35098.67
456.36	34771.00
456.54	36149.57
456.73	36360.22
456.91	36739.39
457.09	37216.86
457.28	38050.09
457.46	36198.73
457.64	35992.76
457.83	35225.06
458.01	33687.33
458.19	34857.60
458.38	35332.73
458.56	36624.70
458.74	36421.08
458.93	35627.63
459.11	35255.49
459.29	35370.18
459.48	35611.25
459.66	35665.08
459.84	36027.87
460.03	35967.01
460.21	36381.29
460.39	37228.56
460.57	37284.73
460.76	37762.20
460.94	36950.04
461.12	37156.00
461.31	37446.23
461.49	37074.09
461.67	37076.43
461.85	37907.32
462.04	37874.55
462.22	38366.06
462.40	37888.59
462.59	37942.42
462.77	37886.25
462.95	37720.07
463.13	37230.90
463.32	37345.59
463.50	36968.76
463.68	37120.90
463.86	37151.32
464.05	36449.16
464.23	35957.65
464.41	35384.22
464.59	34391.83
464.78	36715.98
464.96	36582.57
465.14	36210.43
465.32	37034.30
465.50	38019.66
465.69	38543.94
465.87	37916.68
466.05	36751.09
466.23	34419.92
466.41	34134.37
466.60	35196.98
466.78	35438.05
466.96	35861.69
467.14	36299.37
467.32	37244.94
467.51	37287.07
467.69	35384.22
467.87	35929.56
468.05	36765.14
468.23	36547.47
468.41	36732.37
468.60	36701.94
468.78	37165.37
468.96	36699.60
469.14	37471.98
469.32	37706.03
469.50	36313.41
469.69	36395.33
469.87	36126.17
470.05	35545.72
470.23	35639.34
470.41	35868.71
470.59	36432.78
470.77	36676.19
470.95	37275.37
471.14	37832.42
471.32	37755.18
471.50	39737.62
471.68	39775.06
471.86	39505.90
472.04	40697.24
472.22	40320.41
472.40	38660.97
472.58	38267.76
472.77	37900.29
472.95	38546.28
473.13	39236.74
473.31	38342.66
473.49	39005.03
473.67	39295.25
473.85	39810.17
474.03	40559.14
474.21	40655.11
474.39	41198.11
474.57	41399.40
474.75	41221.52
474.93	41340.88
475.12	40058.27
475.30	39950.60
475.48	40123.80
475.66	40914.90
475.84	40877.46
476.02	40116.78
476.20	39503.56
476.38	40133.17
476.56	41228.54
476.74	42019.64
476.92	42410.51
477.10	42824.78
477.28	43463.75
477.46	44140.16
477.64	44088.67
477.82	44683.17
478.00	44601.25
478.18	44023.14
478.36	43515.24
478.54	43318.64
478.72	44446.77
478.90	45268.30
479.08	45933.01
479.26	46663.26
479.44	46394.10
479.62	46305.16
479.80	46174.09
479.98	46600.07
480.16	46913.70
480.34	46497.08
480.52	46803.69
480.70	47140.73
480.88	46939.44
481.06	47803.10
481.24	48135.46
481.41	48964.01
481.59	49691.91
481.77	49017.84
481.95	48849.32
482.13	48364.83
482.31	48575.48
482.49	49247.21
482.67	48987.41
482.85	49457.86
483.03	49888.52
483.21	50485.36
483.39	49804.26
483.57	49687.23
483.74	49017.84
483.92	49705.96
484.10	49560.84
484.28	50644.51
484.46	50876.22
484.64	50988.57
484.82	50464.29
485.00	49565.52
485.18	49331.47
485.35	48240.78
485.53	44919.56
485.71	40924.27
485.89	40566.16
486.07	42621.16
486.25	46344.95
486.43	48348.45
486.61	48811.87
486.78	48877.41
486.96	48956.99
487.14	50674.94
487.32	51423.91
487.50	52612.90
487.68	53181.65
487.85	53523.37
488.03	53605.29
488.21	53038.88
488.39	52624.60
488.57	52011.38
488.75	51625.20
488.92	52542.69
489.10	54321.49
489.28	55786.67
489.46	56355.42
489.64	56128.39
489.81	56376.48
489.99	56250.09
490.17	55889.65
490.35	56360.10
490.53	55833.48
490.70	55592.40
490.88	55421.55
491.06	56348.40
491.24	56362.44
491.41	55409.84
491.59	53932.96
491.77	53123.14
491.95	54087.44
492.13	55264.73
492.30	56362.44
492.48	57286.95
492.66	57722.29
492.84	57462.49
493.01	57415.68
493.19	56736.93
493.37	56741.61
493.54	56339.04
493.72	57052.90
493.90	57708.25
494.08	58548.50
494.25	58859.79
494.43	59072.78
494.61	59255.34
494.79	59473.01
494.96	59143.00
495.14	58625.74
495.32	57876.77
495.49	57176.95
495.67	58157.63
495.85	59269.39
496.02	59688.34
496.20	59697.70
496.38	59245.98
496.55	59213.21
496.73	59461.31
496.91	59487.06
497.09	60102.62
497.26	60364.76
497.44	59810.05
497.62	59423.86
497.79	58681.91
497.97	57567.82
498.14	57441.43
498.32	58548.50
498.50	59594.72
498.67	60046.44
498.85	59908.35
499.03	60074.53
499.20	60175.17
499.38	60587.11
499.56	60280.50
499.73	59840.48
499.91	59283.43
500.08	58766.17
500.26	58291.04
500.44	58628.08
500.61	59444.93
500.79	59341.94
500.97	58843.41
501.14	58527.44
501.32	58445.52
501.49	58499.35
501.67	58763.83
501.84	59187.47
502.02	59524.50
502.20	59648.55
502.37	60009.00
502.55	60030.06
502.72	60289.86
502.90	60811.80
503.07	60690.09
503.25	60294.54
503.43	59341.94
503.60	58735.74
503.78	58312.11
503.95	58607.01
504.13	59915.37
504.30	60718.18
504.48	60570.72
504.65	60107.30
504.83	60116.66
505.01	60814.14
505.18	61048.19
505.36	61740.99
505.53	61598.22
505.71	61958.66
505.88	61853.34
506.06	61495.24
506.23	61043.51
506.41	60762.65
506.58	60910.10
506.76	60968.61
506.93	61069.26
507.11	60533.28
507.28	60870.31
507.46	60477.10
507.63	59803.03
507.81	59529.19
507.98	59814.73
508.16	60704.13
508.33	61104.37
508.50	61307.99
508.68	61647.37
508.85	62061.64
509.03	61928.23
509.20	61918.87
509.38	61441.40
509.55	60362.42
509.73	60383.48
509.90	61176.92
510.08	61380.55
510.25	61228.41
510.42	61247.14
510.60	61078.62
510.77	61249.48
510.95	61769.08
511.12	61909.51
511.30	62108.46
511.47	62410.38
511.64	62241.87
511.82	62017.17
511.99	61378.21
512.17	60947.55
512.34	60526.25
512.51	60814.14
512.69	60874.99
512.86	60992.02
513.04	61427.36
513.21	61364.17
513.38	60926.49
513.56	60727.54
513.73	60069.85
513.90	60268.79
514.08	60210.28
514.25	60704.13
514.43	60725.20
514.60	60851.59
514.77	60994.36
514.95	61219.05
515.12	61076.28
515.29	61366.51
515.47	61752.69
515.64	61900.15
515.81	61523.32
515.99	60949.89
516.16	59824.09
516.33	57675.48
516.51	56435.00
516.68	55700.07
516.85	55192.17
517.03	55487.08
517.20	57822.93
517.37	60219.64
517.54	60966.27
517.72	60795.42
517.89	58681.91
518.06	56149.45
518.24	56404.57
518.41	58489.99
518.58	59842.82
518.75	60013.68
518.93	60219.64
519.10	60081.55
519.27	60449.02
519.45	60573.06
519.62	61357.14
519.79	61719.93
519.96	61661.41
520.14	61228.41
520.31	60357.74
520.48	60301.56
520.65	60566.04
520.83	61279.91
521.00	61841.63
521.17	61518.64
521.34	61069.26
521.52	61499.92
521.69	61797.16
521.86	62328.47
522.03	62092.07
522.20	60874.99
522.38	59934.10
522.55	59859.20
522.72	60549.66
522.89	60788.39
523.07	60907.76
523.24	61095.00
523.41	61935.26
523.58	62232.50
523.75	62646.78
523.92	62415.07
524.10	62560.18
524.27	62454.86
524.44	62267.61
524.61	62068.67
524.78	61989.09
524.96	61888.45
525.13	61769.08
525.30	62040.58
525.47	62621.03
525.64	62321.44
525.81	61893.13
525.98	60390.50
526.16	59304.49
526.33	58677.23
526.50	58246.57
526.67	57872.09
526.84	58450.20
527.01	59480.03
527.18	60231.35
527.36	61048.19
527.53	61588.86
527.70	61897.81
527.87	61464.81
528.04	61293.95
528.21	61530.34
528.38	62115.48
528.55	62754.44
528.72	62780.19
528.89	63047.01
529.07	62759.12
529.24	62162.29
529.41	61502.26
529.58	61076.28
529.75	61275.22
529.92	61588.86
530.09	61949.30
530.26	62408.04
530.43	62529.75
530.60	62653.80
530.77	62927.64
530.94	62990.84
531.11	62424.43
531.28	62148.24
531.46	62169.31
531.63	62003.13
531.80	62122.50
531.97	61659.07
532.14	61017.77
532.31	60184.54
532.48	59669.62
532.65	59421.52
532.82	60280.50
532.99	61394.59
533.16	61673.12
533.33	62162.29
533.50	61958.66
533.67	61190.97
533.84	60949.89
534.01	61343.10
534.18	61609.92
534.35	61567.79
534.52	61385.23
534.69	61670.78
534.86	61958.66
535.03	62096.75
535.20	62457.20
535.37	62775.51
535.54	62948.71
535.71	62674.87
535.88	62377.62
536.05	61893.13
536.22	61504.60
536.38	60987.34
536.55	60762.65
536.72	60299.22
536.89	60266.45
537.06	60839.89
537.23	61745.67
537.40	61914.19
537.57	61895.47
537.74	61670.78
537.91	61612.26
538.08	61581.84
538.25	61628.65
538.42	61799.50
538.59	61682.48
538.75	60963.93
538.92	60825.84
539.09	60746.26
539.26	60650.30
539.43	60570.72
539.60	60559.02
539.77	60718.18
539.94	60608.17
540.11	60018.36
540.28	59332.58
540.44	59318.54
540.61	59681.32
540.78	59716.43
540.95	60399.86
541.12	60664.35
541.29	60814.14
541.46	61277.57
541.62	61071.60
541.79	61034.15
541.96	60622.22
542.13	60334.33
542.30	60671.37
542.47	60982.66
542.63	60797.76
542.80	60500.51
542.97	60638.60
543.14	60474.76
543.31	60481.78
543.48	60889.04
543.64	61701.20
543.81	61890.79
543.98	61836.95
544.15	61169.90
544.32	60636.26
544.48	60762.65
544.65	61153.52
544.82	61469.49
544.99	60926.49
545.16	60886.70
545.32	60549.66
545.49	61378.21
545.66	61773.76
545.83	61544.39
546.00	60926.49
546.16	60753.29
546.33	60687.75
546.50	60662.00
546.67	61263.52
546.83	60736.90
547.00	60699.45
547.17	60240.71
547.34	59611.10
547.50	59739.83
547.67	60142.41
547.84	60226.66
548.00	60601.15
548.17	60893.72
548.34	60680.73
548.51	60905.42
548.67	60830.52
548.84	60776.69
549.01	60968.61
549.18	60676.05
549.34	60533.28
549.51	60582.43
549.68	60694.77
549.84	60404.55
550.01	60278.16
550.18	60200.92
550.34	60310.92
550.51	60430.29
550.68	60570.72
550.84	59915.37
551.01	60079.21
551.18	60135.38
551.34	60296.88
551.51	60629.24
551.68	60652.64
551.84	60795.42
552.01	60687.75
552.18	60596.47
552.34	60051.12
552.51	59681.32
552.68	59323.22
552.84	59889.63
553.01	60009.00
553.18	60067.51
553.34	59955.16
553.51	60268.79
553.67	60324.97
553.84	60444.33
554.01	60449.02
554.17	60273.48
554.34	60425.61
554.51	60467.74
554.67	60860.95
554.84	60547.32
555.00	60214.96
555.17	60041.76
555.33	60051.12
555.50	59927.08
555.67	60149.43
555.83	59753.88
556.00	59742.17
556.16	59730.47
556.33	59210.87
556.50	59133.63
556.66	59290.45
556.83	58894.90
556.99	58979.16
557.16	59194.49
557.32	59241.30
557.49	59751.54
557.65	59463.65
557.82	59430.88
557.98	59585.36
558.15	59093.85
558.32	58248.91
558.48	57528.03
558.65	57851.02
558.81	58007.84
558.98	58429.13
559.14	58394.03
559.31	58487.65
559.47	58550.84
559.64	58277.00
559.80	57935.28
559.97	57855.70
560.13	58337.85
560.30	59248.32
560.46	59718.77
560.63	59901.33
560.79	59838.14
560.96	59550.25
561.12	58375.30
561.29	57808.89
561.45	57666.12
561.61	58368.28
561.78	58635.10
561.94	58742.77
562.11	58525.10
562.27	58326.15
562.44	58553.18
562.60	58908.94
562.77	59164.06
562.93	58969.80
563.10	58979.16
563.26	58417.43
563.42	58468.92
563.59	58202.10
563.75	58316.79
563.92	58337.85
564.08	58335.51
564.24	58429.13
564.41	58532.12
564.57	58255.93
564.74	58389.34
564.90	58262.96
565.07	58136.57
565.23	57724.63
565.39	57350.15
565.56	57109.07
565.72	56662.03
565.88	57064.60
566.05	57162.90
566.21	57352.49
566.38	57577.18
566.54	57766.76
566.70	57949.32
566.87	58260.62
567.03	58190.40
567.19	58464.24
567.36	58267.64
567.52	57914.22
567.68	57895.49
567.85	57350.15
568.01	56992.04
568.17	56718.20
568.34	56647.99
568.50	56601.18
568.66	56774.37
568.83	57071.62
568.99	57286.95
569.15	57263.55
569.32	57272.91
569.48	56769.69
569.64	56809.48
569.81	56329.67
569.97	56324.99
570.13	56498.19
570.30	55852.20
570.46	55807.73
570.62	55138.34
570.78	55159.41
570.95	55093.87
571.11	55845.18
571.27	56184.56
571.43	56353.08
571.60	56748.63
571.76	56692.46
571.92	57137.16
572.09	57066.94
572.25	57015.45
572.41	57284.61
572.57	56732.25
572.74	57020.13
572.90	56692.46
573.06	56367.12
573.22	56619.90
573.38	56615.22
573.55	56655.01
573.71	56809.48
573.87	56690.12
574.03	56381.16
574.20	56444.36
574.36	56175.20
574.52	56055.83
574.68	55936.46
574.84	55372.39
575.01	55007.27
575.17	55157.06
575.33	55206.22
575.49	55564.32
575.65	55683.69
575.82	55234.30
575.98	55262.39
576.14	55725.81
576.30	55920.08
576.46	56079.24
576.62	55920.08
576.79	55650.92
576.95	55646.24
577.11	55468.36
577.27	55358.35
577.43	55533.89
577.59	55215.58
577.75	54747.47
577.92	54492.35
578.08	54075.74
578.24	54094.46
578.40	54468.95
578.56	54770.88
578.72	54899.61
578.88	54857.48
579.04	55086.85
579.21	55255.37
579.37	55215.58
579.53	55433.25
579.69	55332.60
579.85	55430.91
580.01	55571.34
580.17	54887.90
580.33	54621.08
580.49	55037.70
580.65	55096.21
580.82	55157.06
580.98	55222.60
581.14	55065.78
581.30	55025.99
581.46	54960.46
581.62	55189.83
581.78	55299.84
581.94	55208.56
582.10	55313.88
582.26	55072.81
582.42	55332.60
582.58	55208.56
582.74	55473.04
582.90	55213.24
583.06	55150.04
583.22	54993.23
583.38	55051.74
583.54	54857.48
583.70	54983.86
583.86	54899.61
584.02	54866.84
584.18	54953.44
584.34	54990.89
584.50	54787.26
584.66	54630.44
584.82	54391.71
584.98	54375.33
585.14	53752.74
585.30	53336.13
585.46	53172.29
585.62	53036.54
585.78	53343.15
585.94	53277.61
586.10	53628.69
586.26	53813.60
586.42	54183.40
586.58	54328.52
586.74	54052.33
586.90	53939.99
587.06	54218.51
587.22	54113.19
587.38	53790.19
587.54	53183.99
587.70	53406.34
587.86	52926.53
588.02	52774.40
588.18	52706.52
588.34	51487.10
588.49	49731.70
588.65	47779.70
588.81	47349.04
588.97	47934.17
589.13	47494.15
589.29	47519.90
589.45	48198.65
589.61	49270.62
589.77	50745.15
589.93	51367.74
590.08	51880.31
590.24	52121.39
590.40	52339.06
590.56	52481.83
590.72	52097.98
590.88	51524.55
591.04	51374.76
591.20	51337.31
591.35	51522.21
591.51	51442.63
591.67	51423.91
591.83	51798.40
591.99	51735.20
592.15	51985.64
592.31	52252.46
592.46	51997.34
592.62	51276.46
592.78	51370.08
592.94	51264.75
593.10	51084.53
593.26	51969.26
593.41	51812.44
593.57	51482.42
593.73	51306.88
593.89	50955.80
594.05	50930.06
594.20	50688.98
594.36	50520.46
594.52	50078.10
594.68	50141.30
594.84	50061.72
594.99	50775.58
595.15	50789.62
595.31	50852.82
595.47	50827.07
595.62	50979.21
595.78	51498.81
595.94	51363.06
596.10	51505.83
596.25	51107.94
596.41	50749.84
596.57	50450.25
596.73	51213.26
596.88	50946.44
597.04	50862.18
597.20	50541.53
597.36	50380.03
597.51	50679.62
597.67	50534.51
597.83	50255.98
597.99	50333.22
598.14	49911.92
598.30	50071.08
598.46	49724.68
598.61	50085.12
598.77	49804.26
598.93	50108.53
599.09	50433.86
599.24	50691.32
599.40	50246.62
599.56	50169.38
599.71	50351.94
599.87	50646.85
600.03	50028.95
600.18	49715.32
600.34	49436.80
600.50	49127.84
600.65	49514.03
600.81	49743.41
600.97	49462.54
601.12	49570.21
601.28	49261.26
601.44	48989.75
601.59	49521.05
601.75	48409.30
601.91	48404.62
602.06	48519.31
602.22	49006.14
602.37	48975.71
602.53	49392.33
602.69	49237.85
602.84	49628.72
603.00	49858.09
603.16	50059.38
603.31	49998.52
603.47	49963.42
603.62	49872.14
603.78	49771.49
603.94	49495.31
604.09	49263.60
604.25	49137.21
604.40	48994.43
604.56	49619.36
604.71	49745.75
604.87	48849.32
605.03	49024.86
605.18	48914.86
605.34	48779.10
605.49	48739.32
605.65	48926.56
605.80	48842.30
605.96	48516.96
606.12	48271.21
606.27	48655.06
606.43	48016.09
606.58	48516.96
606.74	48348.45
606.89	49062.31
607.05	48875.07
607.20	48741.66
607.36	48076.94
607.51	47969.28
607.67	47896.72
607.82	47325.63
607.98	47557.35
608.13	47330.31
608.29	47323.29
608.44	47098.60
608.60	46866.89
608.75	47107.96
608.91	47271.80
609.06	47152.43
609.22	47313.93
609.37	47461.38
609.53	46777.95
609.68	46492.40
609.84	46178.77
609.99	45595.98
610.15	46274.73
610.30	46356.65
610.46	46609.43
610.61	47374.78
610.76	46948.81
610.92	47587.77
611.07	47393.51
611.23	46972.21
611.38	47278.82
611.54	47049.45
611.69	46349.63
611.84	45677.90
612.00	45663.85
612.15	45368.94
612.31	45801.94
612.46	45488.31
612.62	45748.11
612.77	45848.75
612.92	46218.56
613.08	45319.79
613.23	44921.90
613.39	43882.70
613.54	44002.07
613.69	44037.18
613.85	44048.88
614.00	44430.39
614.15	44903.18
614.31	44732.32
614.46	45031.91
614.62	45116.17
614.77	44910.20
614.92	45031.91
615.08	44577.84
615.23	44575.50
615.38	44832.96
615.54	43618.22
615.69	42855.21
615.84	41717.71
616.00	41577.28
616.15	42176.45
616.30	42136.66
616.46	42572.00
616.61	42387.10
616.76	42689.03
616.92	42557.96
617.07	43257.78
617.22	43302.25
617.37	43079.90
617.53	43889.73
617.68	43278.85
617.83	43948.24
617.99	43917.81
618.14	43622.90
618.29	43597.16
618.45	42745.20
618.60	42756.91
618.75	42356.67
618.90	42424.55
619.06	43016.71
619.21	43028.41
619.36	43213.31
619.51	43061.18
619.67	42850.53
619.82	42611.79
619.97	42754.57
620.12	42728.82
620.28	42696.05
620.43	43047.13
620.58	43428.64
620.73	42583.71
620.89	42588.39
621.04	42124.96
621.19	41914.31
621.34	41764.52
621.49	41724.73
621.65	41420.46
621.80	41848.78
621.95	41392.37
622.10	41963.46
622.25	41469.61
622.41	41474.29
622.56	41165.34
622.71	40648.08
622.86	40233.81
623.01	40954.69
623.16	40795.54
623.32	40992.14
623.47	40587.23
623.62	40898.52
623.77	39983.37
623.92	39686.12
624.07	39648.68
624.23	39105.67
624.38	39012.05
624.53	39854.64
624.68	38859.91
624.83	39440.37
624.98	38883.32
625.13	38452.66
625.29	38974.60
625.44	38644.59
625.59	39215.68
625.74	39278.87
625.89	39243.76
626.04	39232.06
626.19	39246.10
626.34	38951.20
626.49	39150.14
626.65	39072.90
626.80	38862.26
626.95	38976.94
627.10	38602.46
627.25	37935.40
627.40	36723.01
627.55	35821.90
627.70	35861.69
627.85	36009.14
628.00	36659.81
628.15	37092.81
628.30	36994.51
628.45	37596.03
628.60	37497.72
628.76	37724.75
628.91	37528.15
629.06	37144.30
629.21	36928.97
629.36	36786.20
629.51	36746.41
629.66	36023.19
629.81	36147.23
629.96	36116.81
630.11	36236.17
630.26	36662.15
630.41	37024.93
630.56	36900.89
630.71	36821.31
630.86	37003.87
631.01	36013.82
631.16	36030.21
631.31	35765.73
631.46	35395.92
631.61	35374.86
631.76	35819.56
631.91	35873.39
632.06	35990.42
632.21	36196.38
632.36	36395.33
632.51	36254.90
632.66	36760.45
632.81	36467.89
632.96	36437.46
633.10	36133.19
633.25	35658.06
633.40	35817.22
633.55	35924.88
633.70	35747.00
633.85	35967.01
634.00	35573.80
634.15	35704.87
634.30	35828.92
634.45	35782.11
634.60	35519.97
634.75	35812.54
634.90	35601.89
635.05	35459.12
635.19	35225.06
635.34	35583.16
635.49	35227.40
635.64	35182.93
635.79	35040.16
635.94	34492.47
636.09	34761.64
636.24	34969.94
636.39	34979.31
636.53	34890.37
636.68	35482.52
636.83	35115.06
636.98	35723.60
637.13	35196.98
637.28	35388.90
637.43	35201.66
637.57	35477.84
637.72	34918.45
637.87	35339.75
638.02	35061.22
638.17	34930.16
638.32	34920.79
638.46	34806.11
638.61	34754.61
638.76	34536.94
638.91	33970.54
639.06	34321.62
639.20	33935.43
639.35	33886.28
639.50	33390.08
639.65	33717.76
639.80	33537.54
639.94	33647.54
640.09	33809.04
640.24	34024.37
640.39	33614.77
640.54	32933.68
640.68	33401.79
640.83	33219.22
640.98	32978.15
641.13	32608.34
641.27	33359.66
641.42	33043.68
641.57	32669.20
641.72	32804.95
641.86	32694.94
642.01	33116.24
642.16	33628.82
642.31	33350.29
642.45	33713.08
642.60	32739.41
642.75	32453.87
642.90	32315.78
643.04	32444.51
643.19	32149.60
643.34	32402.38
643.48	32378.97
643.63	31955.33
643.78	32353.23
643.93	32355.57
644.07	32889.21
644.22	32891.55
644.37	32872.82
644.51	32371.95
644.66	32212.79
644.81	31686.17
644.95	31981.08
645.10	31807.88
645.25	31503.61
645.39	31529.36
645.54	31452.12
645.69	31180.62
645.83	30803.79
645.98	30448.03
646.13	30855.28
646.27	30747.62
646.42	31016.78
646.57	30525.27
646.71	30480.80
646.86	30068.86
647.00	30382.49
647.15	30087.59
647.30	29656.93
647.44	29675.65
647.59	29923.75
647.74	30054.82
647.88	29546.92
648.03	29656.93
648.17	30267.81
648.32	29993.97
648.47	30141.42
648.61	30272.49
648.76	29851.19
648.90	29612.46
649.05	28259.63
649.20	28093.45
649.34	27793.86
649.49	27955.36
649.63	28559.22
649.78	29301.17
649.92	29408.83
650.07	30132.06
650.21	29902.68
650.36	29848.85
650.51	30298.23
650.65	30221.00
650.80	30567.40
650.94	29682.67
651.09	28849.44
651.23	28570.92
651.38	28271.33
651.52	27934.29
651.67	28266.65
651.81	28922.00
651.96	28900.94
652.10	28875.19
652.25	29081.16
652.39	29404.15
652.54	29125.63
652.68	29383.09
652.83	28517.09
652.97	28896.25
653.12	28985.19
653.26	29151.37
653.41	29095.20
653.55	29174.78
653.70	28769.86
653.84	28730.08
653.99	28479.64
654.13	27910.89
654.27	27779.82
654.42	27524.70
654.56	27571.51
654.71	27854.72
654.85	27292.99
655.00	27094.04
655.14	26499.55
655.29	26153.15
655.43	25968.24
655.57	25310.55
655.72	23428.76
655.86	21315.26
656.01	20278.40
656.15	20936.09
656.30	21879.33
656.44	22944.27
656.58	23716.65
656.73	24823.72
656.87	25308.21
657.01	25558.65
657.16	26115.70
657.30	26831.90
657.45	26595.51
657.59	27115.11
657.73	27505.98
657.88	27276.60
658.02	27491.93
658.16	26768.71
658.31	27096.38
658.45	27056.59
658.60	26684.45
658.74	26541.68
658.88	26380.18
659.03	26136.76
659.17	25949.52
659.31	26434.01
659.46	26614.23
659.60	26937.23
659.74	26787.43
659.89	26754.66
660.03	26553.38
660.17	26869.35
660.32	26792.11
660.46	26450.39
660.60	26270.17
660.74	26087.61
660.89	26221.02
661.03	26204.64
661.17	26242.09
661.32	26373.16
661.46	26651.68
661.60	26082.93
661.74	26544.02
661.89	26466.78
662.03	26431.67
662.17	26309.96
662.31	26092.29
662.46	25839.51
662.60	25895.69
662.74	25883.98
662.88	25790.36
663.03	25270.76
663.17	25326.94
663.31	25039.05
663.45	25352.68
663.60	25207.57
663.74	25170.12
663.88	25067.14
664.02	25195.87
664.17	24915.00
664.31	25188.85
664.45	25420.56
664.59	25081.18
664.73	24816.70
664.88	25319.92
665.02	25146.72
665.16	25104.59
665.30	24945.43
665.44	24898.62
665.59	24786.27
665.73	24776.91
665.87	24130.92
666.01	24299.44
666.15	24041.98
666.29	24077.09
666.44	24100.50
666.58	24140.29
666.72	23922.62
666.86	24135.60
667.00	24549.88
667.14	24173.05
667.28	24432.85
667.43	23718.99
667.57	23447.49
667.71	23534.09
667.85	23459.19
667.99	23690.90
668.13	23405.36
668.27	23634.73
668.41	23894.53
668.56	23379.61
668.70	23412.38
668.84	23332.80
668.98	23487.28
669.12	23484.94
669.26	23330.46
669.40	23065.98
669.54	22920.87
669.68	22965.34
669.82	23091.73
669.96	22810.86
670.10	22780.43
670.25	22705.54
670.39	22675.11
670.53	22588.51
670.67	22263.18
670.81	22249.13
670.95	22115.72
671.09	22326.37
671.23	22284.24
671.37	21727.19
671.51	21696.77
671.65	21935.50
671.79	21867.63
671.93	21610.17
672.07	22246.79
672.21	21844.22
672.35	21715.49
672.49	21996.35
672.63	21919.12
672.77	21788.05
672.91	21476.76
673.05	21277.81
673.19	21212.28
673.33	21427.60
673.47	21563.36
673.61	21219.30
673.75	21015.67
673.89	21268.45
674.03	21383.13
674.17	20809.70
674.31	21060.14
674.45	21174.83
674.59	21018.01
674.73	20959.50
674.87	20594.37
675.01	20732.47
675.15	20404.79
675.29	20395.43
675.43	20606.08
675.56	20606.08
675.70	20456.28
675.84	20479.69
675.98	20194.14
676.12	20259.68
676.26	20252.66
676.40	20114.56
676.54	19772.85
676.68	19726.04
676.82	19489.64
676.96	19616.03
677.10	19573.90
677.23	19592.62
677.37	19667.52
677.51	19810.29
677.65	19463.90
677.79	19365.59
677.93	19136.22
678.07	19150.26
678.21	18787.48
678.34	19005.15
678.48	19028.56
678.62	18581.51
678.76	18677.48
678.90	18422.36
679.04	18696.20
679.18	18609.60
679.31	18464.49
679.45	18583.85
679.59	18265.54
679.73	18394.27
679.87	18293.63
680.00	17809.14
680.14	18181.28
680.28	18047.87
680.42	17832.54
680.56	17678.07
680.70	17570.40
680.83	17827.86
680.97	17418.27
681.11	17664.02
681.25	17874.67
681.39	17640.62
681.52	17425.29
681.66	17542.32
681.80	17455.72
681.94	17200.60
682.07	17406.56
682.21	17551.68
682.35	17422.95
682.49	16996.97
682.62	16786.32
682.76	16875.26
682.90	16851.86
683.04	16835.47
683.17	16795.68
683.31	16713.77
683.45	16526.52
683.59	16442.26
683.72	15845.43
683.86	15775.21
684.00	15843.09
684.13	15925.00
684.27	16091.18
684.41	15807.98
684.55	15604.35
684.68	15920.32
684.82	15843.09
684.96	15672.23
685.09	15534.14
685.23	15302.42
685.37	15063.69
685.50	15339.87
685.64	15260.29
685.78	15061.35
685.91	15014.54
686.05	15035.60
686.19	14761.76
686.32	13846.61
686.46	12549.95
686.60	10972.43
686.73	9940.26
686.87	9518.96
687.01	9242.78
687.14	9437.04
687.28	9750.67
687.42	10059.62
687.55	10834.34
687.69	11304.79
687.82	11824.39
687.96	12439.95
688.10	12360.37
688.23	12233.98
688.37	11859.49
688.50	11501.39
688.64	11548.20
688.78	11552.88
688.91	11421.81
689.05	11328.19
689.18	11325.85
689.32	11192.44
689.46	11248.61
689.59	11360.96
689.73	11510.75
689.86	11566.93
690.00	11562.25
690.13	11611.40
690.27	11452.24
690.41	11447.56
690.54	11410.11
690.68	11597.35
690.81	11705.02
690.95	11899.28
691.08	11754.17
691.22	11716.72
691.35	11679.27
691.49	11683.95
691.62	11683.95
691.76	11698.00
691.89	11850.13
692.03	11726.08
692.16	11438.20
692.30	11658.21
692.43	11414.79
692.57	11260.32
692.70	11372.66
692.84	10867.11
692.97	11211.17
693.11	11147.97
693.24	11150.31
693.38	10846.04
693.51	10911.58
693.65	10698.59
693.78	10431.77
693.92	10560.50
694.05	10401.34
694.19	10768.80
694.32	10782.85
694.45	10757.10
694.59	10450.49
694.72	10284.31
694.86	10565.18
694.99	10455.17
695.13	10356.87
695.26	10314.74
695.39	10019.83
695.53	10176.65
695.66	10010.47
695.80	10235.16
695.93	10155.58
696.07	10176.65
696.20	10480.92
696.33	10462.19
696.47	10544.11
696.60	10628.37
696.73	10492.62
696.87	10546.45
697.00	10548.79
697.14	10541.77
697.27	10202.40
697.40	10118.14
697.54	9933.23
697.67	9692.16
697.80	9748.33
697.94	9577.47
698.07	9628.96
698.21	9584.49
698.34	9633.64
698.47	9231.07
698.61	9277.88
698.74	9275.54
698.87	9221.71
699.01	9184.26
699.14	9097.66
699.27	9151.49
699.40	9242.78
699.54	9015.74
699.67	9076.60
699.80	8823.82
699.94	9165.54
700.07	8840.20
700.20	8659.98
700.34	8779.35
700.47	8564.02
700.60	8351.03
700.73	8404.86
700.87	8477.42
701.00	8606.15
701.13	8308.90
701.26	8306.56
701.40	8114.64
701.53	8248.05
701.66	8304.22
701.79	8301.88
701.93	8189.53
702.06	8341.67
702.19	8109.96
702.32	8175.49
702.46	8079.53
702.59	7992.93
702.72	7929.74
702.85	8245.71
702.99	8264.43
703.12	8133.36
703.25	7885.26
703.38	7962.50
703.51	7887.61
703.65	7515.46
703.78	7683.98
703.91	7798.66
704.04	7815.05
704.17	7929.74
704.31	7585.68
704.44	7899.31
704.57	7721.43
704.70	7740.15
704.83	7552.91
704.96	7328.22
705.10	7667.60
705.23	7445.24
>>>>>End Processed Spectral Data<<<<<
