SpectraSuite Data File
++++++++++++++++++++++++++++++++++++
Date: Mon Oct 07 14:53:33 GMT-05:00 2013
User: price-jones
Dark Spectrum Present: No
Reference Spectrum Present: No
Number of Sampled Component Spectra: 1
Spectrometers: USB2+H05261
Integration Time (usec): 100000 (USB2+H05261)
Spectra Averaged: 1 (USB2+H05261)
Boxcar Smoothing: 0 (USB2+H05261)
Correct for Electrical Dark: No (USB2+H05261)
Strobe/Lamp Enabled: No (USB2+H05261)
Correct for Detector Non-linearity: No (USB2+H05261)
Correct for Stray Light: No (USB2+H05261)
Number of Pixels in Processed Spectrum: 2048
>>>>>Begin Processed Spectral Data<<<<<
365.73	0.00
365.92	0.00
366.12	0.00
366.32	0.00
366.52	0.00
366.72	0.00
366.91	0.00
367.11	0.00
367.31	0.00
367.51	0.00
367.70	0.00
367.90	0.00
368.10	0.00
368.30	0.00
368.49	0.00
368.69	0.00
368.89	0.00
369.09	0.00
369.28	0.00
369.48	0.00
369.68	0.00
369.87	0.00
370.07	0.00
370.27	0.00
370.47	571.09
370.66	2944.39
370.86	3375.05
371.06	3915.72
371.25	3801.03
371.45	3489.74
371.65	3126.96
371.84	2890.56
372.04	2984.18
372.24	3597.40
372.44	3658.26
372.63	3501.44
372.83	3309.52
373.03	2925.67
373.22	2644.81
373.42	2827.37
373.62	3293.13
373.81	3471.01
374.01	3524.85
374.21	3227.60
374.40	2944.39
374.60	3047.38
374.79	3562.30
374.99	4105.30
375.19	4369.78
375.38	4390.84
375.58	4070.19
375.78	3948.48
375.97	4138.07
376.17	4187.22
376.37	4222.33
376.56	4454.04
376.76	4505.53
376.95	5001.72
377.15	5315.36
377.35	5235.78
377.54	5727.29
377.74	5727.29
377.93	5813.89
378.13	5832.62
378.33	5303.65
378.52	4992.36
378.72	4814.48
378.91	4667.03
379.11	4629.58
379.31	4269.14
379.50	4465.74
379.70	4678.73
379.89	5219.39
380.09	5434.72
380.28	5643.03
380.48	5797.51
380.68	5638.35
380.87	5355.15
381.07	5076.62
381.26	4697.46
381.46	4451.70
381.65	4266.80
381.85	4156.79
382.04	3899.33
382.24	3695.71
382.43	3716.77
382.63	3459.31
382.83	3550.59
383.02	3442.93
383.22	3307.18
383.41	3625.49
383.61	3721.45
383.80	4250.41
384.00	4819.16
384.19	5453.45
384.39	5680.48
384.58	5731.97
384.78	5579.84
384.97	5530.69
385.17	5226.42
385.36	5025.13
385.56	4809.80
385.75	4840.23
385.95	5411.32
386.14	5837.30
386.34	5860.70
386.53	5521.32
386.72	5172.58
386.92	5359.83
387.11	5605.58
387.31	5942.62
387.50	5675.80
387.70	5495.58
387.89	5465.15
388.09	5535.37
388.28	5647.71
388.48	5720.27
388.67	6040.92
388.86	6951.39
389.06	7108.21
389.25	7592.70
389.45	7634.83
389.64	7641.85
389.84	7478.01
390.03	7314.17
390.22	7592.70
390.42	7634.83
390.61	8163.79
390.81	8606.15
391.00	8753.60
391.19	8772.33
391.39	8617.85
391.58	8058.46
391.78	7492.05
391.97	7246.30
392.16	6897.56
392.36	6209.44
392.55	5078.96
392.75	3988.27
392.94	3169.09
393.13	3204.19
393.33	3639.53
393.52	4812.14
393.71	5944.96
393.91	6609.67
394.10	7250.98
394.29	7894.63
394.49	8688.07
394.68	9371.50
394.88	9387.89
395.07	9755.35
395.26	9476.83
395.46	9296.61
395.65	8865.95
395.84	7648.87
396.04	6628.40
396.23	5397.28
396.42	4514.89
396.62	4044.45
396.81	4875.34
397.00	6345.19
397.19	7955.48
397.39	9273.20
397.58	10516.03
397.77	11028.60
397.97	11768.21
398.16	11831.41
398.35	12138.02
398.55	12461.01
398.74	12999.34
398.93	13427.65
399.12	13151.47
399.32	12599.10
399.51	13001.68
399.70	13963.64
399.90	13673.41
400.09	13549.36
400.28	13249.77
400.47	13694.47
400.67	14450.47
400.86	14698.56
401.05	14548.77
401.24	14628.35
401.44	14963.04
401.63	14981.77
401.82	15061.35
402.01	15087.09
402.21	15173.69
402.40	15176.03
402.59	14874.10
402.78	14066.62
402.97	13680.43
403.17	14450.47
403.36	15070.71
403.55	15800.96
403.74	15815.00
403.93	15220.50
404.13	14239.82
404.32	13579.79
404.51	14504.30
404.70	15641.80
404.89	15714.36
405.09	15260.29
405.28	14934.96
405.47	14644.73
405.66	14759.42
405.85	14560.47
406.05	13947.25
406.24	14471.53
406.43	14899.85
406.62	15618.39
406.81	15726.06
407.00	14862.40
407.20	14792.19
407.39	15000.49
407.58	15410.09
407.77	16152.04
407.96	16484.39
408.15	16856.54
408.34	16774.62
408.54	17729.56
408.73	17582.10
408.92	17167.83
409.11	16915.05
409.30	15990.54
409.49	15176.03
409.68	14185.99
409.87	13839.59
410.07	14724.31
410.26	15681.59
410.45	16638.87
410.64	17137.40
410.83	17862.97
411.02	18015.10
411.21	18820.25
411.40	18679.82
411.59	18951.32
411.78	18501.93
411.98	18108.72
412.17	18794.50
412.36	18293.63
412.55	18445.76
412.74	18057.23
412.93	17635.94
413.12	17696.79
413.31	19262.61
413.50	19545.81
413.69	20009.24
413.88	19152.60
414.07	18281.92
414.26	18895.14
414.45	19644.12
414.64	19604.33
414.83	19807.95
415.02	19168.99
415.22	19260.27
415.41	19644.12
415.60	20315.85
415.79	21050.78
415.98	21542.29
416.17	21736.56
416.36	21102.27
416.55	20596.71
416.74	20205.84
416.93	19470.92
417.12	19381.98
417.31	19660.50
417.50	19873.49
417.69	20683.31
417.88	20613.10
418.07	20402.45
418.26	19950.73
418.45	20292.44
418.64	20954.82
418.83	21937.84
419.02	21436.97
419.21	21497.82
419.39	20081.80
419.58	19463.90
419.77	19389.00
419.96	20327.55
420.15	21116.31
420.34	21916.78
420.53	22724.26
420.72	23400.68
420.91	23026.19
421.10	22600.21
421.29	22824.90
421.48	21881.67
421.67	22995.76
421.86	22235.09
422.05	20816.72
422.24	18700.88
422.43	18389.59
422.61	19957.75
422.80	21762.30
422.99	22185.94
423.18	20957.16
423.37	20620.12
423.56	20659.91
423.75	21369.09
423.94	21584.42
424.13	20662.25
424.32	20552.24
424.50	20812.04
424.69	20570.97
424.88	20507.77
425.07	20620.12
425.26	20402.45
425.45	20212.87
425.64	19676.88
425.83	19843.06
426.01	20996.95
426.20	21605.49
426.39	21862.94
426.58	20046.69
426.77	18499.59
426.96	18012.76
427.15	18202.35
427.33	19943.70
427.52	20545.22
427.71	20985.24
427.90	20453.94
428.09	20280.74
428.28	19847.74
428.46	19178.35
428.65	19040.26
428.84	19466.24
429.03	19632.41
429.22	18890.46
429.40	17762.33
429.59	16238.64
429.78	14286.63
429.97	14197.69
430.16	14530.05
430.34	14759.42
430.53	14719.63
430.72	14815.59
430.91	16290.13
431.10	19391.34
431.28	22506.59
431.47	24507.75
431.66	24889.26
431.85	22740.64
432.03	20760.55
432.22	19690.93
432.41	20585.01
432.60	23157.26
432.79	23939.00
432.97	24439.87
433.16	24034.96
433.35	21876.99
433.54	19494.32
433.72	18396.61
433.91	18651.73
434.10	21198.23
434.28	22913.84
434.47	23995.17
434.66	23531.75
434.85	22951.29
435.03	22726.60
435.22	23440.47
435.41	24940.75
435.59	24973.52
435.78	25170.12
435.97	26036.12
436.16	26103.99
436.34	25989.31
436.53	25144.38
436.72	25425.24
436.90	23939.00
437.09	23702.61
437.28	23309.40
437.46	24116.88
437.65	24137.94
437.84	22939.59
438.02	20727.78
438.21	20402.45
438.40	21851.24
438.58	23669.84
438.77	24215.18
438.96	24364.98
439.14	25280.13
439.33	26096.97
439.52	26288.90
439.70	26089.95
439.89	25352.68
440.08	24524.13
440.26	24257.31
440.45	25216.93
440.63	27363.20
440.82	28334.53
441.01	27934.29
441.19	27410.01
441.38	28016.21
441.57	29427.56
441.75	29766.93
441.94	29965.88
442.12	29509.47
442.31	30075.88
442.50	29890.98
442.68	29717.78
442.87	29149.03
443.05	28811.99
443.24	29542.24
443.43	29741.19
443.61	30499.52
443.80	30824.86
443.98	29116.26
444.17	28938.38
444.35	30738.26
444.54	31484.89
444.73	30759.32
444.91	29509.47
445.10	28694.97
445.28	27438.10
445.47	26717.22
445.65	26923.18
445.84	27899.19
446.02	28854.12
446.21	28961.79
446.39	29455.64
446.58	29390.11
446.77	29956.52
446.95	30632.93
447.14	31028.48
447.32	31824.26
447.51	31445.10
447.69	29766.93
447.88	29177.12
448.06	29827.79
448.25	30452.71
448.43	30801.45
448.62	30073.54
448.80	30349.73
448.99	30396.54
449.17	30682.08
449.36	30548.67
449.54	31868.73
449.73	31908.52
449.91	32772.18
450.10	33298.80
450.28	33858.19
450.46	33888.62
450.65	33942.45
450.83	33312.84
451.02	32753.46
451.20	32687.92
451.39	32535.79
451.57	32503.02
451.76	32470.25
451.94	32250.24
452.13	31459.14
452.31	30361.43
452.49	28914.98
452.68	29078.82
452.86	29312.87
453.05	29387.77
453.23	30377.81
453.42	31211.04
453.60	31835.97
453.78	32189.39
453.97	32233.86
454.15	31999.80
454.34	31555.10
454.52	31550.42
454.70	30810.81
454.89	31234.45
455.07	31527.02
455.26	31550.42
455.44	32940.70
455.62	33586.69
455.81	33970.54
455.99	33350.29
456.17	33298.80
456.36	33308.16
456.54	34075.86
456.73	34204.59
456.91	34422.26
457.09	34677.38
457.28	35189.95
457.46	34199.91
457.64	33879.25
457.83	32755.80
458.01	32297.05
458.19	32870.48
458.38	32914.95
458.56	34110.97
458.74	33893.30
458.93	33450.94
459.11	33324.55
459.29	32898.57
459.48	33305.82
459.66	33109.22
459.84	33816.06
460.03	33909.68
460.21	33963.51
460.39	34836.53
460.57	34611.84
460.76	35161.87
460.94	35534.01
461.12	34991.01
461.31	34581.42
461.49	34494.82
461.67	34422.26
461.85	35955.31
462.04	35517.63
462.22	36037.23
462.40	36121.49
462.59	35709.55
462.77	35686.15
462.95	35306.98
463.13	35150.17
463.32	34632.91
463.50	34689.08
463.68	34614.18
463.86	35058.88
464.05	34665.67
464.23	33457.96
464.41	33502.43
464.59	33167.73
464.78	34380.13
464.96	34452.69
465.14	33940.11
465.32	34937.18
465.50	35859.35
465.69	36339.16
465.87	35124.42
466.05	34494.82
466.23	32875.16
466.41	32620.05
466.60	33219.22
466.78	32844.74
466.96	33443.91
467.14	34253.74
467.32	34932.50
467.51	34873.98
467.69	32978.15
467.87	34174.16
468.05	34263.10
468.23	34792.06
468.41	34679.72
468.60	34806.11
468.78	35459.12
468.96	34312.25
469.14	35580.82
469.32	35526.99
469.50	33982.24
469.69	34080.54
469.87	33394.76
470.05	33151.35
470.23	33305.82
470.41	33200.50
470.59	34050.11
470.77	34099.26
470.95	34871.64
471.14	35267.19
471.32	35260.17
471.50	37486.02
471.68	37668.58
471.86	37867.53
472.04	37734.12
472.22	37724.75
472.40	36144.89
472.58	36070.00
472.77	35550.40
472.95	36528.74
473.13	37436.87
473.31	35971.69
473.49	36313.41
473.67	36900.89
473.85	37486.02
474.03	37965.83
474.21	38525.22
474.39	38712.46
474.57	38761.61
474.75	38892.68
474.93	38909.07
475.12	37895.61
475.30	37778.59
475.48	38024.34
475.66	38225.63
475.84	38258.40
476.02	37462.61
476.20	37251.97
476.38	37848.80
476.56	39232.06
476.74	39505.90
476.92	39693.15
477.10	40692.55
477.28	41113.85
477.46	41186.41
477.64	42078.15
477.82	42124.96
478.00	42686.69
478.18	41144.28
478.36	40992.14
478.54	41326.84
478.72	41408.76
478.90	42361.36
479.08	43697.80
479.26	44196.34
479.44	43978.67
479.62	43690.78
479.80	43936.54
479.98	44065.27
480.16	44091.01
480.34	43723.55
480.52	44266.55
480.70	44346.13
480.88	44268.89
481.06	45233.19
481.24	45567.89
481.41	46286.43
481.59	47054.13
481.77	46941.78
481.95	46162.39
482.13	45504.70
482.31	46080.47
482.49	46419.84
482.67	46806.03
482.85	46845.82
483.03	47243.71
483.21	47880.34
483.39	47737.57
483.57	46979.23
483.74	46642.20
483.92	47044.77
484.10	47159.45
484.28	48025.45
484.46	48926.56
484.64	49062.31
484.82	48163.54
485.00	47618.20
485.18	47133.71
485.35	45385.33
485.53	42698.39
485.71	38934.81
485.89	38092.22
486.07	40339.13
486.25	43164.16
486.43	45460.23
486.61	46637.51
486.78	46707.73
486.96	46300.48
487.14	48250.14
487.32	49343.17
487.50	50085.12
487.68	51019.00
487.85	51283.48
488.03	51353.69
488.21	51363.06
488.39	50401.10
488.57	49876.82
488.75	49315.09
488.92	50590.68
489.10	52477.15
489.28	53860.41
489.46	54665.55
489.64	54108.50
489.81	54438.52
489.99	54115.53
490.17	54213.83
490.35	54255.96
490.53	53982.12
490.70	53567.84
490.88	53551.46
491.06	54492.35
491.24	54557.89
491.41	53581.88
491.59	52048.83
491.77	51159.43
491.95	52315.65
492.13	53567.84
492.30	54611.72
492.48	55409.84
492.66	55877.95
492.84	55992.64
493.01	55327.92
493.19	55241.32
493.37	55054.08
493.54	54553.21
493.72	55103.23
493.90	55962.21
494.08	57083.33
494.25	57237.80
494.43	57443.77
494.61	57654.42
494.79	57834.64
494.96	57513.98
495.14	57176.95
495.32	55983.27
495.49	55510.49
495.67	56545.00
495.85	57602.92
496.02	58141.25
496.20	57879.11
496.38	57680.16
496.55	57282.27
496.73	57911.88
496.91	57815.91
497.09	58607.01
497.26	58700.64
497.44	58267.64
497.62	57853.36
497.79	57113.75
497.97	55899.01
498.14	55779.65
498.32	56975.66
498.50	57759.74
498.67	58583.61
498.85	58391.68
499.03	58436.16
499.20	58815.32
499.38	58611.70
499.56	58569.57
499.73	58141.25
499.91	57717.61
500.08	57251.84
500.26	56692.46
500.44	56891.40
500.61	57762.08
500.79	57577.18
500.97	57069.28
501.14	57127.80
501.32	56811.82
501.49	57027.15
501.67	57148.86
501.84	57254.18
502.02	57804.21
502.20	58274.66
502.37	58227.85
502.55	58314.45
502.72	58930.01
502.90	59159.38
503.07	58897.24
503.25	58665.53
503.43	57703.57
503.60	57226.10
503.78	56706.50
503.95	56996.73
504.13	58459.56
504.30	59224.92
504.48	58951.07
504.65	58513.39
504.83	58585.95
505.01	59210.87
505.18	59363.01
505.36	60060.49
505.53	60032.40
505.71	60292.20
505.88	60425.61
506.06	59700.04
506.23	59590.04
506.41	59063.42
506.58	59339.60
506.76	59442.59
506.93	59281.09
507.11	58995.54
507.28	59107.89
507.46	58653.82
507.63	58274.66
507.81	57888.47
507.98	58333.17
508.16	58969.80
508.33	59262.36
508.50	59842.82
508.68	60090.91
508.85	60470.08
509.03	60481.78
509.20	60287.52
509.38	59763.24
509.55	58815.32
509.73	58965.12
509.90	59573.66
510.08	59686.00
510.25	59667.28
510.42	59529.19
510.60	59344.28
510.77	59587.70
510.95	60329.65
511.12	60339.01
511.30	60809.46
511.47	60722.86
511.64	60544.98
511.82	60441.99
511.99	59753.88
512.17	59552.59
512.34	58756.81
512.51	59077.46
512.69	59208.53
512.86	59449.61
513.04	60004.31
513.21	59746.86
513.38	59526.84
513.56	58890.22
513.73	58405.73
513.90	58665.53
514.08	58838.73
514.25	59201.51
514.43	59363.01
514.60	59435.56
514.77	59475.35
514.95	59669.62
515.12	59494.08
515.29	59618.13
515.47	60051.12
515.64	60409.23
515.81	59767.92
515.99	59571.32
516.16	57961.03
516.33	56009.02
516.51	54288.73
516.68	53834.66
516.85	53408.68
517.03	53495.28
517.20	56147.11
517.37	58829.37
517.54	59470.67
517.72	59245.98
517.89	56905.44
518.06	54639.81
518.24	54789.60
518.41	56940.55
518.58	58209.12
518.75	58450.20
518.93	58515.73
519.10	58494.67
519.27	58885.54
519.45	58983.84
519.62	59824.09
519.79	59957.50
519.96	60044.10
520.14	59545.57
520.31	58768.51
520.48	58646.80
520.65	59241.30
520.83	60205.60
521.00	60299.22
521.17	60032.40
521.34	59505.78
521.52	59882.61
521.69	60404.55
521.86	60926.49
522.03	60657.32
522.20	59377.05
522.38	58473.60
522.55	58269.98
522.72	58855.11
522.89	59131.29
523.07	59449.61
523.24	59690.68
523.41	60404.55
523.58	60610.51
523.75	60933.51
523.92	61052.87
524.10	61010.74
524.27	60781.37
524.44	60718.18
524.61	60528.59
524.78	60498.17
524.96	60259.43
525.13	60390.50
525.30	60376.46
525.47	61123.09
525.64	60914.78
525.81	60303.90
525.98	59091.51
526.16	57528.03
526.33	56926.51
526.50	56570.75
526.67	56193.92
526.84	56589.47
527.01	57586.54
527.18	58560.20
527.36	59386.41
527.53	60144.75
527.70	60449.02
527.87	59978.57
528.04	59540.89
528.21	60142.41
528.38	60552.00
528.55	61059.90
528.72	61478.85
528.89	61471.83
529.07	61275.22
529.24	60811.80
529.41	60327.31
529.58	59419.18
529.75	59505.78
529.92	60053.47
530.09	60320.29
530.26	60844.57
530.43	61062.24
530.60	61031.81
530.77	61394.59
530.94	61474.17
531.11	61240.12
531.28	60608.17
531.46	60467.74
531.63	60727.54
531.80	60425.61
531.97	60217.30
532.14	59456.63
532.31	58328.49
532.48	57916.56
532.65	57663.78
532.82	58583.61
532.99	59746.86
533.16	60250.07
533.33	60624.56
533.50	60308.58
533.67	59964.52
533.84	59494.08
534.01	59676.64
534.18	59711.75
534.35	60060.49
534.52	59955.16
534.69	60198.58
534.86	60486.46
535.03	60683.07
535.20	60938.19
535.37	61462.47
535.54	61331.40
535.71	61183.94
535.88	60652.64
536.05	60275.82
536.22	59882.61
536.38	59386.41
536.55	59091.51
536.72	58553.18
536.89	58590.63
537.06	59325.56
537.23	60240.71
537.40	60308.58
537.57	60303.90
537.74	59929.42
537.91	60032.40
538.08	60142.41
538.25	60065.17
538.42	60310.92
538.59	60196.24
538.75	59405.14
538.92	59269.39
539.09	59100.87
539.26	58761.49
539.43	58808.30
539.60	59100.87
539.77	59070.44
539.94	58887.88
540.11	58171.67
540.28	57822.93
540.44	57825.28
540.61	57996.13
540.78	58220.83
540.95	58604.67
541.12	59250.66
541.29	59407.48
541.46	59288.11
541.62	59538.55
541.79	59414.50
541.96	58777.87
542.13	58850.43
542.30	59147.68
542.47	59442.59
542.63	59119.59
542.80	58897.24
542.97	59061.08
543.14	59187.47
543.31	58890.22
543.48	59323.22
543.64	60097.94
543.81	60399.86
543.98	60289.86
544.15	59391.09
544.32	58920.65
544.48	59150.02
544.65	59437.90
544.82	59838.14
544.99	59515.14
545.16	59412.16
545.32	59061.08
545.49	59774.94
545.66	60198.58
545.83	59632.17
546.00	59367.69
546.16	59035.33
546.33	59166.40
546.50	59199.17
546.67	59564.29
546.83	59117.25
547.00	59323.22
547.17	58768.51
547.34	58078.05
547.50	58087.42
547.67	58597.65
547.84	58445.52
548.00	58855.11
548.17	59346.62
548.34	59140.66
548.51	59255.34
548.67	59318.54
548.84	59386.41
549.01	59201.51
549.18	59044.69
549.34	59171.08
549.51	59164.06
549.68	59231.94
549.84	58684.25
550.01	58768.51
550.18	58457.22
550.34	58592.97
550.51	58754.47
550.68	58805.96
550.84	58532.12
551.01	58571.91
551.18	58555.52
551.34	58728.72
551.51	58681.91
551.68	59161.72
551.84	59213.21
552.01	58901.92
552.18	59210.87
552.34	58279.34
552.51	58096.78
552.68	57743.36
552.84	58216.14
553.01	58625.74
553.18	58361.26
553.34	58578.93
553.51	58698.30
553.67	58960.44
553.84	59114.91
554.01	58700.64
554.17	58719.36
554.34	58438.50
554.51	59070.44
554.67	59117.25
554.84	59014.27
555.00	58693.61
555.17	58761.49
555.33	58543.82
555.50	58333.17
555.67	58461.90
555.83	58335.51
556.00	58075.71
556.16	57869.75
556.33	57640.37
556.50	57408.66
556.66	57443.77
556.83	57254.18
556.99	57563.14
557.16	57542.07
557.32	57726.97
557.49	57911.88
557.65	57609.95
557.82	57972.73
557.98	57652.08
558.15	57326.74
558.32	56413.93
558.48	55590.06
558.65	56018.38
558.81	56495.85
558.98	56329.67
559.14	56891.40
559.31	56573.09
559.47	56940.55
559.64	56587.13
559.80	56074.55
559.97	56332.01
560.13	56301.59
560.30	57422.70
560.46	57998.48
560.63	58047.63
560.79	58197.42
560.96	57930.60
561.12	56989.70
561.29	55955.19
561.45	56069.87
561.61	56577.77
561.78	57003.75
561.94	56870.34
562.11	56844.59
562.27	56488.83
562.44	57242.48
562.60	57357.17
562.77	57593.56
562.93	57233.12
563.10	57422.70
563.26	56746.29
563.42	56598.83
563.59	56575.43
563.75	56353.08
563.92	56575.43
564.08	56383.51
564.24	56547.34
564.41	56926.51
564.57	56662.03
564.74	56577.77
564.90	56523.94
565.07	56250.09
565.23	55908.38
565.39	55573.68
565.56	55126.64
565.72	55133.66
565.88	55414.52
566.05	55334.95
566.21	55896.67
566.38	55826.46
566.54	56060.51
566.70	56404.57
566.87	56336.69
567.03	56488.83
567.19	56875.02
567.36	56537.98
567.52	56437.34
567.68	56177.54
567.85	55440.27
568.01	55241.32
568.17	54822.37
568.34	54852.80
568.50	54976.84
568.66	54906.63
568.83	55348.99
568.99	55255.37
569.15	55370.05
569.32	55522.19
569.48	55358.35
569.64	54972.16
569.81	54719.38
569.97	54775.56
570.13	54773.22
570.30	54183.40
570.46	53790.19
570.62	53200.38
570.78	53106.76
570.95	53205.06
571.11	54148.29
571.27	54305.11
571.43	54438.52
571.60	55068.12
571.76	54901.95
571.92	55255.37
572.09	55295.16
572.25	55451.97
572.41	55442.61
572.57	55023.65
572.74	55161.75
572.90	54705.34
573.06	54939.39
573.22	54859.82
573.38	54733.43
573.55	54904.29
573.71	55194.51
573.87	54752.15
574.03	54670.23
574.20	54691.30
574.36	54129.57
574.52	54227.87
574.68	54024.25
574.84	53717.64
575.01	53151.23
575.17	53116.12
575.33	53418.05
575.49	53808.92
575.65	53780.83
575.82	53666.14
575.98	53317.40
576.14	53645.08
576.30	53963.39
576.46	53965.73
576.62	53532.73
576.79	53888.49
576.95	53354.85
577.11	53614.65
577.27	53897.86
577.43	53659.12
577.59	53123.14
577.75	52755.68
577.92	52308.63
578.08	52006.70
578.24	52200.97
578.40	52470.13
578.56	52947.60
578.72	52921.85
578.88	52832.91
579.04	53073.99
579.21	53146.54
579.37	53062.29
579.53	53490.60
579.69	53436.77
579.85	53488.26
580.01	53366.55
580.17	52722.91
580.33	52975.69
580.49	53031.86
580.65	52961.64
580.82	53462.52
580.98	53270.59
581.14	53249.53
581.30	53375.92
581.46	52919.51
581.62	53233.14
581.78	53216.76
581.94	53495.28
582.10	53333.79
582.26	53476.56
582.42	53352.51
582.58	53659.12
582.74	53301.02
582.90	53275.27
583.06	53357.19
583.22	53069.31
583.38	53191.01
583.54	53118.46
583.70	53036.54
583.86	53127.82
584.02	52971.00
584.18	53134.84
584.34	52809.51
584.50	52566.09
584.66	52853.98
584.82	52566.09
584.98	52339.06
585.14	51704.77
585.30	51271.78
585.46	50852.82
585.62	50768.56
585.78	51388.80
585.94	51133.68
586.10	52020.75
586.26	51868.61
586.42	52032.45
586.58	52266.50
586.74	52491.19
586.90	52418.64
587.06	52079.26
587.22	51952.87
587.38	51606.47
587.54	51379.44
587.70	51077.51
587.86	50988.57
588.02	50644.51
588.18	50499.40
588.34	49251.89
588.49	47217.97
588.65	44877.43
588.81	44830.62
588.97	44971.05
589.13	44858.71
589.29	44376.56
589.45	45500.01
589.61	47320.95
589.77	48032.47
589.93	48891.45
590.08	49755.11
590.24	49837.03
590.40	50183.43
590.56	50387.05
590.72	49956.39
590.88	49411.05
591.04	49411.05
591.20	49069.33
591.35	49263.60
591.51	49106.78
591.67	49378.28
591.83	49322.11
591.99	49502.33
592.15	49439.14
592.31	49715.32
592.46	49329.13
592.62	49773.83
592.78	49134.87
592.94	49233.17
593.10	49165.29
593.26	49808.94
593.41	49787.88
593.57	49474.24
593.73	48966.35
593.89	48844.64
594.05	48729.95
594.20	48542.71
594.36	47775.02
594.52	47643.94
594.68	47625.22
594.84	48219.72
594.99	48587.18
595.15	48264.19
595.31	48224.40
595.47	48346.11
595.62	48746.34
595.78	48935.92
595.94	49268.28
596.10	49240.19
596.25	48617.61
596.41	48320.36
596.57	48332.06
596.73	48680.80
596.88	48825.92
597.04	48348.45
597.20	48404.62
597.36	47922.47
597.51	48109.71
597.67	48299.30
597.83	47908.43
597.99	47725.86
598.14	47452.02
598.30	47632.24
598.46	47435.64
598.61	47739.91
598.77	48004.39
598.93	48116.73
599.09	48247.80
599.24	48540.37
599.40	47835.87
599.56	47805.44
599.71	48151.84
599.87	48168.22
600.03	47702.46
600.18	47316.27
600.34	47346.70
600.50	46721.77
600.65	46476.02
600.81	47222.65
600.97	47157.11
601.12	47110.30
601.28	46871.57
601.44	47058.81
601.59	46637.51
601.75	46354.31
601.91	45872.16
602.06	46157.70
602.22	46040.68
602.37	46665.60
602.53	46902.00
602.69	47072.85
602.84	47281.16
603.00	47353.72
603.16	47540.96
603.31	47445.00
603.47	47767.99
603.62	47217.97
603.78	47290.52
603.94	47091.58
604.09	46791.99
604.25	46553.26
604.40	47026.04
604.56	46607.09
604.71	46899.65
604.87	46948.81
605.03	46667.94
605.18	46590.70
605.34	46003.23
605.49	46218.56
605.65	46672.62
605.80	46913.70
605.96	46213.88
606.12	45963.44
606.27	45855.78
606.43	45532.78
606.58	45982.16
606.74	46134.30
606.89	46138.98
607.05	46534.53
607.20	46007.91
607.36	45572.57
607.51	45165.32
607.67	45244.90
607.82	44793.17
607.98	44992.12
608.13	44739.34
608.29	44313.36
608.44	44603.59
608.60	44587.21
608.75	44596.57
608.91	44327.41
609.06	44236.12
609.22	44889.13
609.37	44622.31
609.53	45216.81
609.68	44238.47
609.84	43405.23
609.99	43152.46
610.15	43592.48
610.30	43952.92
610.46	43957.60
610.61	44093.35
610.76	44580.18
610.92	45013.18
611.07	44816.58
611.23	44622.31
611.38	44940.63
611.54	43973.98
611.69	43777.38
611.84	43026.07
612.00	43070.54
612.15	42768.61
612.31	43210.97
612.46	42644.56
612.62	43145.44
612.77	43487.15
612.92	43674.40
613.08	42983.94
613.23	42719.46
613.39	41462.59
613.54	41333.86
613.69	41490.68
613.85	41727.07
614.00	42150.71
614.15	41879.21
614.31	42403.49
614.46	42501.79
614.62	42452.64
614.77	42562.64
614.92	42567.32
615.08	42043.04
615.23	42279.44
615.38	42080.49
615.54	41099.81
615.69	39789.11
615.84	39342.06
616.00	39161.84
616.15	39201.63
616.30	39952.94
616.46	39452.07
616.61	40016.14
616.76	40465.52
616.92	40086.36
617.07	40250.19
617.22	40840.01
617.37	41060.02
617.53	41099.81
617.68	41148.96
617.83	40987.46
617.99	41539.83
618.14	41385.35
618.29	40978.10
618.45	40666.81
618.60	40364.88
618.75	40006.78
618.90	39749.32
619.06	40399.99
619.21	40168.27
619.36	40989.80
619.51	40444.46
619.67	40191.68
619.82	40076.99
619.97	40502.97
620.12	40636.38
620.28	40411.69
620.43	40177.64
620.58	40680.85
620.73	40481.91
620.89	39894.43
621.04	40123.80
621.19	39580.80
621.34	39040.14
621.49	39346.75
621.65	39016.73
621.80	39524.63
621.95	38401.17
622.10	39194.61
622.25	39274.19
622.41	38834.17
622.56	38508.83
622.71	38204.56
622.86	37832.42
623.01	38249.03
623.16	38433.94
623.32	38565.01
623.47	38244.35
623.62	38139.03
623.77	38087.54
623.92	37614.75
624.07	36842.37
624.23	36556.83
624.38	37191.11
624.53	36947.70
624.68	37347.93
624.83	37198.13
624.98	36683.22
625.13	36109.78
625.29	35974.03
625.44	36032.55
625.59	36500.65
625.74	36666.83
625.89	36669.17
626.04	36334.48
626.19	36823.65
626.34	36921.95
626.49	36545.12
626.65	36444.48
626.80	36364.90
626.95	36713.64
627.10	36311.07
627.25	35747.00
627.40	34747.59
627.55	34211.61
627.70	33642.86
627.85	33598.39
628.00	34382.47
628.15	35049.52
628.30	35377.20
628.45	35227.40
628.60	35180.59
628.76	35283.58
628.91	35288.26
629.06	35103.35
629.21	34848.24
629.36	34462.05
629.51	34412.90
629.66	33769.25
629.81	34022.03
629.96	33677.97
630.11	34225.65
630.26	34691.42
630.41	34607.16
630.56	34637.59
630.71	34946.54
630.86	34181.18
631.01	34192.89
631.16	33673.29
631.31	33366.68
631.46	32826.01
631.61	33214.54
631.76	33502.43
631.91	33736.48
632.06	34293.53
632.21	34251.40
632.36	34113.31
632.51	33909.68
632.66	34565.03
632.81	34265.44
632.96	34424.60
633.10	33752.87
633.25	33610.09
633.40	33553.92
633.55	33432.21
633.70	33556.26
633.85	33350.29
634.00	33259.01
634.15	33472.00
634.30	33598.39
634.45	33799.68
634.60	33771.59
634.75	33401.79
634.90	33656.90
635.05	33563.28
635.19	33191.14
635.34	33544.56
635.49	32966.45
635.64	33254.33
635.79	32840.06
635.94	32421.10
636.09	32713.67
636.24	32924.32
636.39	33046.02
636.53	33137.30
636.68	33188.80
636.83	33015.60
636.98	33305.82
637.13	33481.36
637.28	33294.12
637.43	33532.86
637.57	33193.48
637.72	32795.59
637.87	32933.68
638.02	32847.08
638.17	32877.51
638.32	32334.50
638.46	32978.15
638.61	32943.04
638.76	32212.79
638.91	31988.10
639.06	31999.80
639.20	32048.96
639.35	31838.31
639.50	31239.13
639.65	31496.59
639.80	31094.02
639.94	31529.36
640.09	31960.02
640.24	31700.22
640.39	31573.83
640.54	31185.30
640.68	31271.90
640.83	30876.35
640.98	30976.99
641.13	30728.89
641.27	31225.09
641.42	30733.57
641.57	31005.08
641.72	30778.04
641.86	30092.27
642.01	30991.03
642.16	30946.56
642.31	31178.28
642.45	31185.30
642.60	30911.46
642.75	30682.08
642.90	30649.32
643.04	30824.86
643.19	30654.00
643.34	30742.94
643.48	30223.34
643.63	29853.53
643.78	30536.97
643.93	30803.79
644.07	30628.25
644.22	30834.22
644.37	30457.39
644.51	30602.50
644.66	30492.50
644.81	29708.42
644.95	29614.80
645.10	29701.40
645.25	29359.68
645.39	29429.90
645.54	29340.96
645.69	29518.84
645.83	29184.14
645.98	28730.08
646.13	28641.14
646.27	28701.99
646.42	28650.50
646.57	28996.90
646.71	28804.97
646.86	28596.67
647.00	28226.86
647.15	28002.17
647.30	28212.82
647.44	27744.71
647.59	28175.37
647.74	27943.66
647.88	27943.66
648.03	27658.11
648.17	28388.36
648.32	28154.30
648.47	28257.29
648.61	28067.70
648.76	28098.13
648.90	27159.58
649.05	26759.34
649.20	26115.70
649.34	26073.57
649.49	25860.58
649.63	26691.47
649.78	27166.60
649.92	27384.27
650.07	28254.95
650.21	28058.34
650.36	28217.50
650.51	28088.77
650.65	28369.63
650.80	28264.31
650.94	27922.59
651.09	27424.06
651.23	26923.18
651.38	26611.89
651.52	26206.98
651.67	26412.95
651.81	27178.30
651.96	26841.26
652.10	26946.59
652.25	27023.83
652.39	27660.45
652.54	27283.62
652.68	27297.67
652.83	27309.37
652.97	27044.89
653.12	26988.72
653.26	26951.27
653.41	27168.94
653.55	27126.81
653.70	26974.67
653.84	26885.73
653.99	26820.20
654.13	26134.42
654.27	26052.50
654.42	25804.41
654.56	25333.96
654.71	25591.42
654.85	25638.23
655.00	25738.87
655.14	25144.38
655.29	24903.30
655.43	24570.94
655.57	23035.55
655.72	21912.10
655.86	20444.58
656.01	19192.39
656.15	19330.48
656.30	20425.86
656.44	21425.26
656.58	22501.91
656.73	23398.34
656.87	23676.86
657.01	23999.85
657.16	24552.22
657.30	24606.05
657.45	25064.80
657.59	25415.88
657.73	25106.93
657.88	25546.95
658.02	25495.46
658.16	25467.37
658.31	25303.53
658.45	25179.48
658.60	24985.22
658.74	24907.98
658.88	25032.03
659.03	24680.95
659.17	24800.32
659.31	24795.64
659.46	24879.89
659.60	24826.06
659.74	25057.78
659.89	25373.75
660.03	24912.66
660.17	25380.77
660.32	24828.40
660.46	24826.06
660.60	24779.25
660.74	24643.50
660.89	24669.25
661.03	24381.36
661.17	24645.84
661.32	24648.18
661.46	24751.17
661.60	24388.38
661.74	24486.68
661.89	24496.05
662.03	24865.85
662.17	24683.29
662.31	24407.11
662.46	24575.62
662.60	24299.44
662.74	24079.43
662.88	23768.14
663.03	23782.18
663.17	23653.45
663.31	23513.02
663.45	24065.39
663.60	23608.98
663.74	23943.68
663.88	23246.20
664.02	23510.68
664.17	23522.38
664.31	23068.32
664.45	23498.98
664.59	23583.24
664.73	23733.03
664.88	23866.44
665.02	23449.83
665.16	23470.89
665.30	23599.62
665.44	23143.22
665.59	23002.78
665.73	23152.58
665.87	22621.28
666.01	22267.86
666.15	22515.95
666.29	22284.24
666.44	22775.75
666.58	22333.39
666.72	22733.62
666.86	22717.24
667.00	22890.44
667.14	22796.82
667.28	22471.48
667.43	22370.84
667.57	22209.34
667.71	22356.80
667.85	22146.15
667.99	22036.14
668.13	22047.85
668.27	22040.82
668.41	22143.81
668.56	22127.42
668.70	22150.83
668.84	22061.89
668.98	21858.26
669.12	21792.73
669.26	21977.63
669.40	21638.25
669.54	21378.45
669.68	21488.46
669.82	21441.65
669.96	21341.00
670.10	21582.08
670.25	21202.91
670.39	21231.00
670.53	20795.66
670.67	20992.26
670.81	21097.59
670.95	20790.98
671.09	20762.89
671.23	20533.52
671.37	20678.63
671.51	20266.70
671.65	20542.88
671.79	20659.91
671.93	20187.12
672.07	20585.01
672.21	20533.52
672.35	20273.72
672.49	20505.43
672.63	20343.94
672.77	20238.61
672.91	20222.23
673.05	20027.96
673.19	19924.98
673.33	20016.26
673.47	19796.25
673.61	19899.23
673.75	19939.02
673.89	19817.32
674.03	20109.88
674.17	19953.07
674.31	19513.05
674.45	19866.47
674.59	19241.54
674.73	19456.87
674.87	19765.82
675.01	19145.58
675.15	19222.82
675.29	18834.29
675.43	19236.86
675.56	19271.97
675.70	19260.27
675.84	18988.77
675.98	18623.64
676.12	19066.00
676.26	19075.37
676.40	19047.28
676.54	18794.50
676.68	18799.18
676.82	18506.62
676.96	18721.95
677.10	18380.23
677.23	18520.66
677.37	18354.48
677.51	18579.17
677.65	18249.16
677.79	18195.32
677.93	18029.15
678.07	17855.95
678.21	17678.07
678.34	17628.92
678.48	17523.59
678.62	17156.13
678.76	17270.81
678.90	17472.10
679.04	17179.53
679.18	17633.60
679.31	17043.78
679.45	17249.75
679.59	17303.58
679.73	17121.02
679.87	16889.31
680.00	17214.64
680.14	16826.11
680.28	16676.32
680.42	16830.79
680.56	16821.43
680.70	16329.92
680.83	16645.89
680.97	16367.37
681.11	16292.47
681.25	16355.66
681.39	16446.94
681.52	16418.86
681.66	16320.56
681.80	15932.03
681.94	16100.55
682.07	16393.11
682.21	16081.82
682.35	16079.48
682.49	15770.53
682.62	15934.37
682.76	15524.77
682.90	15758.83
683.04	15707.34
683.17	15660.52
683.31	15276.68
683.45	15398.38
683.59	15447.54
683.72	14949.00
683.86	14918.57
684.00	14682.18
684.13	14789.85
684.27	14714.95
684.41	14787.50
684.55	15080.07
684.68	14991.13
684.82	14724.31
684.96	14569.83
685.09	14436.42
685.23	14450.47
685.37	14265.57
685.50	14277.27
685.64	14155.56
685.78	13839.59
685.91	14125.13
686.05	14057.26
686.19	13724.90
686.32	12821.45
686.46	11396.07
686.60	10195.37
686.73	9198.31
686.87	8720.84
687.01	8571.04
687.14	8954.89
687.28	9205.33
687.42	9565.77
687.55	10186.01
687.69	10958.39
687.82	10953.71
687.96	11398.41
688.10	11590.33
688.23	11290.74
688.37	11129.25
688.50	10820.30
688.64	10993.50
688.78	10860.09
688.91	10590.92
689.05	10534.75
689.18	10520.71
689.32	10626.03
689.46	10410.70
689.59	10829.66
689.73	10740.72
689.86	10595.61
690.00	10890.51
690.13	10714.97
690.27	10766.46
690.41	10977.11
690.54	11087.12
690.68	10890.51
690.81	10848.38
690.95	10864.77
691.08	11206.48
691.22	10684.55
691.35	10977.11
691.49	11171.38
691.62	11033.29
691.76	11122.23
691.89	11028.60
692.03	10780.51
692.16	10869.45
692.30	10614.33
692.43	10808.59
692.57	10600.29
692.70	10583.90
692.84	10249.21
692.97	10183.67
693.11	10319.42
693.24	10506.66
693.38	10118.14
693.51	10293.68
693.65	10129.84
693.78	9975.36
693.92	9753.01
694.05	9809.19
694.19	9994.09
694.32	10003.45
694.45	9958.98
694.59	9792.80
694.72	9804.50
694.86	9753.01
694.99	9647.69
695.13	9745.99
695.26	9764.72
695.39	9584.49
695.53	9624.28
695.66	9650.03
695.80	9291.93
695.93	9472.15
696.07	9621.94
696.20	9755.35
696.33	9867.70
696.47	9771.74
696.60	9933.23
696.73	9942.60
696.87	9900.47
697.00	9827.91
697.14	9741.31
697.27	9694.50
697.40	9776.42
697.54	9350.44
697.67	9156.18
697.80	9081.28
697.94	9048.51
698.07	8896.38
698.21	8952.55
698.34	9006.38
698.47	8961.91
698.61	8535.93
698.74	8624.87
698.87	8648.28
699.01	8620.19
699.14	8549.98
699.27	8521.89
699.40	8690.41
699.54	8617.85
699.67	8545.30
699.80	8491.46
699.94	8383.80
700.07	8264.43
700.20	8128.68
700.34	7929.74
700.47	7903.99
700.60	8028.04
700.73	7932.08
700.87	8060.80
701.00	7929.74
701.13	7763.56
701.26	7854.84
701.40	7688.66
701.53	7583.34
701.66	7604.40
701.79	7674.62
701.93	7747.17
702.06	7768.24
702.19	7665.25
702.32	7674.62
702.46	7517.80
702.59	7508.44
702.72	7426.52
702.85	7548.23
702.99	7550.57
703.12	7597.38
703.25	7461.63
703.38	7515.46
703.51	7300.13
703.65	7290.77
703.78	7218.21
703.91	7307.15
704.04	7318.86
704.17	7194.81
704.31	7375.03
704.44	7297.79
704.57	7398.43
704.70	7377.37
704.83	7253.32
704.96	7140.97
705.10	6909.26
705.23	7052.03
>>>>>End Processed Spectral Data<<<<<
