SpectraSuite Data File
++++++++++++++++++++++++++++++++++++
Date: Mon Oct 07 14:53:05 GMT-05:00 2013
User: price-jones
Dark Spectrum Present: No
Reference Spectrum Present: No
Number of Sampled Component Spectra: 1
Spectrometers: USB2+H05261
Integration Time (usec): 100000 (USB2+H05261)
Spectra Averaged: 1 (USB2+H05261)
Boxcar Smoothing: 0 (USB2+H05261)
Correct for Electrical Dark: No (USB2+H05261)
Strobe/Lamp Enabled: No (USB2+H05261)
Correct for Detector Non-linearity: No (USB2+H05261)
Correct for Stray Light: No (USB2+H05261)
Number of Pixels in Processed Spectrum: 2048
>>>>>Begin Processed Spectral Data<<<<<
365.73	0.00
365.92	0.00
366.12	0.00
366.32	0.00
366.52	0.00
366.72	0.00
366.91	0.00
367.11	0.00
367.31	0.00
367.51	0.00
367.70	0.00
367.90	0.00
368.10	0.00
368.30	0.00
368.49	0.00
368.69	0.00
368.89	0.00
369.09	0.00
369.28	0.00
369.48	0.00
369.68	0.00
369.87	0.00
370.07	0.00
370.27	0.00
370.47	491.51
370.66	2619.06
370.86	3232.28
371.06	3543.57
371.25	3520.17
371.45	3258.03
371.65	2867.16
371.84	2588.63
372.04	2818.00
372.24	3159.72
372.44	3260.37
372.63	3176.11
372.83	2979.50
373.03	2602.68
373.22	2373.30
373.42	2581.61
373.62	2857.79
373.81	3222.92
374.01	3138.66
374.21	2890.56
374.40	2715.02
374.60	2750.13
374.79	3150.36
374.99	3595.06
375.19	3992.95
375.38	4023.38
375.58	3794.01
375.78	3742.52
375.97	3667.62
376.17	3866.56
376.37	3999.98
376.56	4128.70
376.76	4072.53
376.95	4456.38
377.15	4849.59
377.35	4868.31
377.54	5193.65
377.74	5165.56
377.93	5249.82
378.13	5114.07
378.33	4929.17
378.52	4477.44
378.72	4400.21
378.91	4198.92
379.11	4077.21
379.31	4014.02
379.50	3908.69
379.70	4334.67
379.89	4713.84
380.09	5008.75
380.28	5088.32
380.48	5137.48
380.68	5060.24
380.87	4997.04
381.07	4601.49
381.26	4301.90
381.46	3786.99
381.65	3765.92
381.85	3889.97
382.04	3632.51
382.24	3288.45
382.43	3169.09
382.63	3110.57
382.83	3169.09
383.02	3056.74
383.22	3239.30
383.41	3096.53
383.61	3323.56
383.80	3847.84
384.00	4397.87
384.19	4884.70
384.39	5341.10
384.58	4938.53
384.78	5015.77
384.97	5020.45
385.17	4650.64
385.36	4662.35
385.56	4264.46
385.75	4435.32
385.95	4877.68
386.14	5261.52
386.34	5357.49
386.53	5114.07
386.72	4880.02
386.92	4692.77
387.11	4887.04
387.31	5416.00
387.50	5308.34
387.70	5008.75
387.89	4933.85
388.09	4912.78
388.28	5097.69
388.48	5160.88
388.67	5458.13
388.86	6167.31
389.06	6476.26
389.25	6801.60
389.45	6923.30
389.64	6651.80
389.84	6787.55
390.03	6668.19
390.22	6684.57
390.42	6782.87
390.61	7344.60
390.81	7822.07
391.00	7946.12
391.19	7840.79
391.39	7744.83
391.58	7112.89
391.78	6733.72
391.97	6766.49
392.16	5947.30
392.36	5572.82
392.55	4510.21
392.75	3414.84
392.94	2897.58
393.13	2988.86
393.33	3515.48
393.52	4411.91
393.71	5516.64
393.91	6050.28
394.10	6612.01
394.29	7297.79
394.49	7831.43
394.68	8269.11
394.88	8423.59
395.07	8713.81
395.26	8545.30
395.46	8318.26
395.65	8065.49
395.84	6722.02
396.04	5823.25
396.23	4578.09
396.42	3896.99
396.62	3866.56
396.81	4521.92
397.00	5682.82
397.19	7066.08
397.39	8528.91
397.58	9652.37
397.77	10090.05
397.97	10588.58
398.16	10614.33
398.35	10841.36
398.55	11227.55
398.74	11695.66
398.93	11728.42
399.12	11599.70
399.32	11463.94
399.51	11754.17
399.70	12322.92
399.90	12170.79
400.09	12540.59
400.28	12093.55
400.47	12123.98
400.67	12978.27
400.86	12863.58
401.05	13235.73
401.24	13202.96
401.44	13511.91
401.63	13446.38
401.82	13638.30
402.01	13568.09
402.21	13582.13
402.40	13855.97
402.59	13245.09
402.78	12683.36
402.97	12386.12
403.17	13268.50
403.36	13507.23
403.55	13848.95
403.74	14324.08
403.93	13359.78
404.13	12732.51
404.32	12397.82
404.51	12926.78
404.70	14188.33
404.89	14153.22
405.09	13881.72
405.28	13453.40
405.47	13369.14
405.66	13165.51
405.85	13121.04
406.05	12919.76
406.24	12734.85
406.43	13261.48
406.62	13668.73
406.81	14005.77
407.00	13490.85
407.20	13226.37
407.39	13434.68
407.58	14143.86
407.77	14382.59
407.96	14719.63
408.15	14927.94
408.34	14927.94
408.54	15609.03
408.73	15758.83
408.92	15590.31
409.11	15286.04
409.30	14471.53
409.49	13661.71
409.68	12542.93
409.87	12067.80
410.07	12903.37
410.26	14068.96
410.45	15014.54
410.64	15522.43
410.83	15768.19
411.02	16273.74
411.21	16861.22
411.40	16629.51
411.59	16753.55
411.78	16676.32
411.98	16498.44
412.17	16819.09
412.36	16315.87
412.55	16517.16
412.74	16058.42
412.93	15658.18
413.12	16006.92
413.31	17364.43
413.50	17200.60
413.69	17769.35
413.88	17221.66
414.07	16643.55
414.26	16844.84
414.45	17390.18
414.64	17713.17
414.83	17488.48
415.02	17146.76
415.22	17284.86
415.41	17495.50
415.60	18127.45
415.79	18953.66
415.98	19491.98
416.17	19227.50
416.36	18874.08
416.55	18574.49
416.74	18207.03
416.93	17380.82
417.12	17352.73
417.31	17862.97
417.50	17914.46
417.69	18544.06
417.88	18394.27
418.07	18160.22
418.26	18012.76
418.45	18590.88
418.64	18857.70
418.83	19424.11
419.02	19197.07
419.21	19098.77
419.39	18230.43
419.58	17441.67
419.77	17338.69
419.96	18359.16
420.15	19108.13
420.34	19679.22
420.53	20475.01
420.72	20900.98
420.91	20673.95
421.10	20416.49
421.29	20318.19
421.48	19536.45
421.67	20381.38
421.86	19901.58
422.05	18448.10
422.24	16753.55
422.43	16774.62
422.61	18237.45
422.80	19789.23
422.99	19765.82
423.18	18712.58
423.37	18525.34
423.56	18625.98
423.75	19480.28
423.94	19356.23
424.13	18326.39
424.32	18452.78
424.50	18595.56
424.69	18429.38
424.88	18410.65
425.07	18476.19
425.26	18281.92
425.45	18136.81
425.64	17951.91
425.83	17987.02
426.01	18838.97
426.20	19264.95
426.39	19377.30
426.58	17827.86
426.77	16624.83
426.96	15976.50
427.15	16652.91
427.33	17919.14
427.52	18595.56
427.71	18813.23
427.90	18305.33
428.09	18450.44
428.28	18284.26
428.46	17284.86
428.65	16922.07
428.84	17593.81
429.03	17958.93
429.22	17022.72
429.40	15646.48
429.59	14384.93
429.78	12863.58
429.97	13081.25
430.16	13050.83
430.34	12884.65
430.53	13064.87
430.72	13462.76
430.91	14981.77
431.10	17303.58
431.28	20540.54
431.47	22394.25
431.66	22693.83
431.85	20428.20
432.03	18752.37
432.22	18064.25
432.41	18625.98
432.60	20690.34
432.79	21275.47
432.97	22143.81
433.16	21593.78
433.35	19360.91
433.54	17788.07
433.72	16854.20
433.91	17238.05
434.10	19126.86
434.28	20346.28
434.47	21659.32
434.66	21392.50
434.85	20589.69
435.03	20505.43
435.22	21025.03
435.41	22602.55
435.59	22651.70
435.78	22721.92
435.97	23491.96
436.16	23688.56
436.34	23068.32
436.53	22768.73
436.72	22892.78
436.90	21467.39
437.09	21535.27
437.28	21120.99
437.46	21902.73
437.65	21766.98
437.84	20121.59
438.02	18628.32
438.21	18525.34
438.40	19711.99
438.58	21280.15
438.77	22122.74
438.96	21788.05
439.14	22946.61
439.33	23515.36
439.52	23885.17
439.70	23386.63
439.89	22630.64
440.08	22120.40
440.26	22298.28
440.45	22588.51
440.63	24180.07
440.82	25565.67
441.01	24840.11
441.19	25160.76
441.38	25460.35
441.57	26239.75
441.75	26745.30
441.94	27105.74
442.12	26340.39
442.31	27426.40
442.50	27143.19
442.68	27166.60
442.87	26340.39
443.05	25958.88
443.24	26115.70
443.43	27126.81
443.61	27412.35
443.80	27948.34
443.98	26377.84
444.17	26459.76
444.35	28072.39
444.54	28325.16
444.73	28332.18
444.91	26567.42
445.10	25614.82
445.28	24910.32
445.47	24245.61
445.65	24393.06
445.84	25418.22
446.02	26080.59
446.21	26642.32
446.39	26506.57
446.58	26764.03
446.77	27426.40
446.95	27786.84
447.14	28444.53
447.32	29099.88
447.51	27875.78
447.69	26789.77
447.88	26698.49
448.06	26766.37
448.25	27676.83
448.43	28177.71
448.62	27035.53
448.80	27161.92
448.99	27768.12
449.17	28088.77
449.36	27992.81
449.54	28854.12
449.73	29390.11
449.91	29436.92
450.10	30307.60
450.28	30974.65
450.46	30668.04
450.65	30869.33
450.83	30335.68
451.02	29507.13
451.20	29778.64
451.39	29184.14
451.57	29039.03
451.76	29308.19
451.94	28929.02
452.13	28739.44
452.31	26977.01
452.49	25853.56
452.68	26375.50
452.86	26221.02
453.05	26789.77
453.23	27859.40
453.42	28088.77
453.60	28884.55
453.78	29053.07
453.97	28783.91
454.15	28556.88
454.34	28205.80
454.52	28599.01
454.70	27562.15
454.89	28580.28
455.07	28105.15
455.26	28678.58
455.44	29797.36
455.62	30583.78
455.81	30740.60
455.99	30249.08
456.17	29818.42
456.36	30000.99
456.54	31044.87
456.73	30548.67
456.91	31164.23
457.09	31866.39
457.28	32058.32
457.46	30752.30
457.64	30635.27
457.83	29479.05
458.01	29085.84
458.19	29907.37
458.38	29862.90
458.56	30834.22
458.74	30649.32
458.93	30614.21
459.11	30031.41
459.29	30073.54
459.48	30307.60
459.66	29773.95
459.84	30452.71
460.03	31140.83
460.21	30710.17
460.39	31388.92
460.57	31641.70
460.76	31915.54
460.94	31782.13
461.12	31880.44
461.31	31374.88
461.49	31625.32
461.67	31658.09
461.85	32620.05
462.04	32545.15
462.22	33151.35
462.40	32680.90
462.59	32311.10
462.77	32442.17
462.95	31936.61
463.13	32266.63
463.32	32140.24
463.50	31541.06
463.68	31749.37
463.86	31707.24
464.05	31009.76
464.23	30335.68
464.41	30710.17
464.59	30239.72
464.78	31276.58
464.96	31185.30
465.14	31000.40
465.32	31737.66
465.50	32659.84
465.69	33067.09
465.87	31854.69
466.05	31236.79
466.23	29759.91
466.41	29362.02
466.60	30256.11
466.78	29858.21
466.96	30679.74
467.14	31285.94
467.32	31857.03
467.51	31515.31
467.69	30075.88
467.87	30752.30
468.05	31307.01
468.23	31288.28
468.41	31269.56
468.60	31847.67
468.78	31466.16
468.96	31133.81
469.14	32074.70
469.32	32287.69
469.50	30576.76
469.69	31119.76
469.87	30286.53
470.05	30197.59
470.23	30632.93
470.41	30871.67
470.59	30803.79
470.77	31316.37
470.95	31735.32
471.14	32280.67
471.32	31903.84
471.50	34146.08
471.68	33907.34
471.86	34265.44
472.04	34527.58
472.22	34129.69
472.40	33053.05
472.58	32587.28
472.77	32245.56
472.95	33010.92
473.13	33692.01
473.31	32772.18
473.49	33039.00
473.67	33883.94
473.85	34092.24
474.03	34731.21
474.21	34946.54
474.39	35571.46
474.57	35367.84
474.75	35416.99
474.93	35072.93
475.12	34134.37
475.30	34361.40
475.48	34934.84
475.66	35440.39
475.84	34213.95
476.02	34487.79
476.20	34050.11
476.38	34761.64
476.56	35536.35
476.74	35889.77
476.92	36236.17
477.10	36685.56
477.28	37706.03
477.46	37785.61
477.64	38148.39
477.82	38424.57
478.00	38335.63
478.18	37385.38
478.36	37471.98
478.54	37738.80
478.72	38047.75
478.90	38696.08
479.08	39868.69
479.26	40313.39
479.44	40198.70
479.62	40053.59
479.80	39981.03
479.98	40219.77
480.16	40381.26
480.34	39821.87
480.52	40849.37
480.70	40463.18
480.88	41097.47
481.06	41787.92
481.24	41858.14
481.41	42623.50
481.59	42887.98
481.77	42925.42
481.95	42660.94
482.13	42029.00
482.31	42300.50
482.49	42927.77
482.67	42848.19
482.85	43126.71
483.03	43854.62
483.21	44552.10
483.39	44261.87
483.57	43491.83
483.74	43012.02
483.92	43356.08
484.10	43936.54
484.28	44823.60
484.46	45118.51
484.64	45256.60
484.82	44807.22
485.00	43878.02
485.18	43079.90
485.35	42080.49
485.53	38794.38
485.71	35236.77
485.89	35119.74
486.07	37141.96
486.25	40435.10
486.43	42635.20
486.61	43023.73
486.78	43236.72
486.96	42838.83
487.14	45059.99
487.32	45687.26
487.50	46939.44
487.68	48060.56
487.85	48149.50
488.03	48449.09
488.21	47580.75
488.39	47086.90
488.57	45862.80
488.75	45778.54
488.92	47508.19
489.10	49757.45
489.28	51194.54
489.46	51753.93
489.64	51363.06
489.81	51882.66
489.99	51454.34
490.17	51288.16
490.35	51742.22
490.53	51175.81
490.70	50831.75
490.88	50897.29
491.06	51636.90
491.24	51679.03
491.41	50237.26
491.59	48409.30
491.77	47950.56
491.95	49436.80
492.13	50412.80
492.30	51889.68
492.48	52816.53
492.66	53207.40
492.84	53071.65
493.01	53134.84
493.19	52442.04
493.37	52051.17
493.54	51943.51
493.72	52587.16
493.90	53521.03
494.08	54405.75
494.25	54899.61
494.43	54876.20
494.61	55192.17
494.79	55414.52
494.96	55089.19
495.14	54433.84
495.32	53396.98
495.49	52802.49
495.67	54035.95
495.85	55283.45
496.02	55948.17
496.20	55461.33
496.38	55131.32
496.55	54939.39
496.73	55267.07
496.91	55831.14
497.09	56266.48
497.26	56217.33
497.44	55955.19
497.62	55423.89
497.79	54340.22
497.97	52961.64
498.14	53455.50
498.32	54733.43
498.50	55466.02
498.67	56224.35
498.85	56161.15
499.03	56034.77
499.20	56453.72
499.38	56456.06
499.56	56170.52
499.73	55526.87
499.91	55491.76
500.08	54990.89
500.26	54113.19
500.44	54728.75
500.61	55494.10
500.79	55091.53
500.97	54939.39
501.14	54728.75
501.32	54560.23
501.49	54794.28
501.67	54866.84
501.84	55285.79
502.02	55573.68
502.20	55887.31
502.37	56027.74
502.55	55964.55
502.72	56676.07
502.90	56992.04
503.07	56743.95
503.25	56250.09
503.43	55346.65
503.60	54714.70
503.78	54003.18
503.95	54670.23
504.13	56156.47
504.30	56928.85
504.48	56767.35
504.65	56324.99
504.83	56350.74
505.01	57193.33
505.18	57546.75
505.36	57972.73
505.53	57925.92
505.71	58211.46
505.88	58169.33
506.06	57591.22
506.23	57336.10
506.41	56779.06
506.58	57343.12
506.76	57134.82
506.93	57066.94
507.11	56945.23
507.28	57029.49
507.46	56601.18
507.63	56069.87
507.81	55985.61
507.98	56280.52
508.16	56889.06
508.33	57268.23
508.50	57593.56
508.68	57876.77
508.85	58323.81
509.03	58431.47
509.20	58131.89
509.38	57631.01
509.55	56729.90
509.73	56886.72
509.90	57495.26
510.08	57495.26
510.25	57638.03
510.42	57340.78
510.60	57247.16
510.77	57478.88
510.95	58288.70
511.12	58295.72
511.30	58660.85
511.47	58707.66
511.64	58777.87
511.82	58557.86
511.99	57490.58
512.17	57237.80
512.34	56844.59
512.51	57048.22
512.69	57216.74
512.86	57286.95
513.04	57888.47
513.21	57731.65
513.38	57471.85
513.56	57118.43
513.73	56259.46
513.90	56608.20
514.08	56781.40
514.25	57144.18
514.43	57223.76
514.60	57336.10
514.77	57190.99
514.95	57717.61
515.12	57340.78
515.29	57434.41
515.47	58085.07
515.64	58284.02
515.81	57848.68
515.99	57315.04
516.16	55875.61
516.33	53418.05
516.51	52158.84
516.68	51215.60
516.85	50761.54
517.03	51344.33
517.20	54136.59
517.37	56580.11
517.54	57628.67
517.72	56914.81
517.89	54391.71
518.06	51828.82
518.24	52502.90
518.41	54688.96
518.58	56039.45
518.75	55941.14
518.93	56261.80
519.10	56320.31
519.27	56526.28
519.45	57329.08
519.62	57621.65
519.79	58124.86
519.96	57783.15
520.14	57453.13
520.31	56612.88
520.48	56664.37
520.65	56750.97
520.83	57935.28
521.00	58115.50
521.17	58080.39
521.34	57429.72
521.52	57972.73
521.69	58471.26
521.86	58808.30
522.03	58595.31
522.20	57043.54
522.38	56154.13
522.55	56177.54
522.72	56889.06
522.89	56966.30
523.07	57237.80
523.24	57581.86
523.41	58447.86
523.58	58913.62
523.75	59025.97
523.92	58798.94
524.10	58960.44
524.27	58817.66
524.44	58712.34
524.61	58468.92
524.78	58660.85
524.96	58258.27
525.13	58248.91
525.30	58599.99
525.47	59208.53
525.64	58763.83
525.81	58192.74
525.98	56795.44
526.16	55117.28
526.33	54651.51
526.50	54312.13
526.67	54038.29
526.84	54768.54
527.01	55732.84
527.18	56608.20
527.36	57528.03
527.53	58166.99
527.70	58405.73
527.87	58071.03
528.04	57329.08
528.21	58047.63
528.38	58618.72
528.55	59351.30
528.72	59426.20
528.89	59543.23
529.07	59297.47
529.24	58539.14
529.41	58038.26
529.58	57535.05
529.75	57530.37
529.92	58066.35
530.09	58618.72
530.26	58976.82
530.43	59131.29
530.60	59196.83
530.77	59370.03
530.94	59451.95
531.11	59290.45
531.28	58564.88
531.46	58630.42
531.63	58684.25
531.80	58632.76
531.97	58183.38
532.14	57654.42
532.31	56245.41
532.48	55746.88
532.65	56109.66
532.82	56540.32
532.99	57961.03
533.16	58066.35
533.33	58798.94
533.50	58550.84
533.67	57975.07
533.84	57642.71
534.01	57925.92
534.18	57869.75
534.35	58134.23
534.52	57881.45
534.69	58220.83
534.86	58492.33
535.03	58731.06
535.20	59236.62
535.37	59573.66
535.54	59725.79
535.71	59124.27
535.88	58922.99
536.05	58279.34
536.22	57741.02
536.38	57719.95
536.55	57153.54
536.72	56514.58
536.89	56526.28
537.06	57640.37
537.23	58288.70
537.40	58602.33
537.57	58211.46
537.74	58501.69
537.91	58176.36
538.08	58262.96
538.25	58230.19
538.42	58487.65
538.59	58199.76
538.75	57488.24
538.92	57439.09
539.09	57223.76
539.26	56914.81
539.43	56912.47
539.60	56999.07
539.77	57118.43
539.94	56835.23
540.11	56086.26
540.28	55908.38
540.44	55681.34
540.61	56287.54
540.78	56444.36
540.95	56917.15
541.12	57254.18
541.29	57584.20
541.46	57750.38
541.62	57909.53
541.79	57556.11
541.96	56839.91
542.13	57048.22
542.30	57176.95
542.47	57443.77
542.63	57146.52
542.80	56889.06
542.97	57090.35
543.14	57006.09
543.31	57116.09
543.48	57411.00
543.64	58468.92
543.81	58717.02
543.98	58281.68
544.15	57631.01
544.32	57247.16
544.48	57425.04
544.65	57808.89
544.82	58152.95
544.99	57631.01
545.16	57277.59
545.32	57092.69
545.49	57918.90
545.66	58122.52
545.83	57733.99
546.00	57556.11
546.16	57230.78
546.33	57429.72
546.50	57155.88
546.67	57691.86
546.83	57366.53
547.00	57291.63
547.17	56704.16
547.34	56069.87
547.50	56259.46
547.67	56603.52
547.84	56853.95
548.00	56980.34
548.17	57389.94
548.34	57448.45
548.51	57506.96
548.67	57312.70
548.84	57570.16
549.01	57368.87
549.18	57256.53
549.34	57240.14
549.51	57268.23
549.68	57162.90
549.84	56797.78
550.01	56788.42
550.18	56528.62
550.34	56851.61
550.51	56800.12
550.68	57106.73
550.84	56484.15
551.01	56624.58
551.18	56610.54
551.34	56573.09
551.51	57221.42
551.68	57354.83
551.84	57448.45
552.01	57214.40
552.18	57104.39
552.34	56112.00
552.51	55875.61
552.68	56149.45
552.84	56376.48
553.01	56413.93
553.18	56444.36
553.34	56718.20
553.51	56853.95
553.67	57158.22
553.84	57174.61
554.01	56952.26
554.17	56853.95
554.34	56963.96
554.51	57008.43
554.67	57406.32
554.84	57289.29
555.00	57073.96
555.17	56413.93
555.33	56619.90
555.50	56533.30
555.67	56460.74
555.83	56245.41
556.00	56179.88
556.16	56058.17
556.33	55693.05
556.50	55723.47
556.66	55751.56
556.83	55412.18
556.99	55721.13
557.16	55709.43
557.32	56315.63
557.49	56207.97
557.65	56126.05
557.82	55854.54
557.98	55910.72
558.15	55264.73
558.32	54688.96
558.48	53752.74
558.65	54309.79
558.81	54658.53
558.98	54497.03
559.14	54843.43
559.31	54873.86
559.47	54976.84
559.64	54522.78
559.80	54447.88
559.97	54169.36
560.13	54855.14
560.30	55529.21
560.46	56189.24
560.63	56486.49
560.79	56521.60
560.96	55941.14
561.12	54944.08
561.29	53815.94
561.45	54134.25
561.61	54869.18
561.78	55276.43
561.94	54962.80
562.11	54805.98
562.27	55025.99
562.44	55009.61
562.60	55236.64
562.77	55730.50
562.93	55440.27
563.10	55664.96
563.26	55206.22
563.42	54918.33
563.59	54742.79
563.75	54808.32
563.92	54829.39
564.08	54733.43
564.24	55180.47
564.41	55140.68
564.57	55000.25
564.74	54557.89
564.90	54550.87
565.07	54167.02
565.23	53963.39
565.39	53743.38
565.56	53228.46
565.72	52898.45
565.88	53614.65
566.05	53528.05
566.21	54094.46
566.38	54064.03
566.54	54389.37
566.70	54270.00
566.87	54560.23
567.03	54616.40
567.19	55147.70
567.36	54447.88
567.52	54576.61
567.68	54365.96
567.85	53483.58
568.01	53373.58
568.17	52633.97
568.34	52849.30
568.50	52870.36
568.66	52940.58
568.83	53001.43
568.99	53310.38
569.15	53647.42
569.32	53502.31
569.48	53319.74
569.64	53326.77
569.81	52727.59
569.97	52903.13
570.13	52842.27
570.30	52076.92
570.46	51789.03
570.62	50806.01
570.78	51138.36
570.95	51487.10
571.11	52231.40
571.27	52418.64
571.43	52594.18
571.60	53216.76
571.76	53024.84
571.92	53361.87
572.09	53621.67
572.25	53256.55
572.41	53272.93
572.57	53081.01
572.74	53237.83
572.90	52982.71
573.06	52561.41
573.22	52992.07
573.38	53104.41
573.55	52830.57
573.71	52743.97
573.87	52942.92
574.03	52809.51
574.20	52664.39
574.36	52378.85
574.52	52339.06
574.68	52065.22
574.84	51767.97
575.01	51267.09
575.17	51255.39
575.33	51587.75
575.49	51707.12
575.65	52037.13
575.82	51517.53
575.98	51756.27
576.14	51512.85
576.30	51995.00
576.46	52116.71
576.62	51861.59
576.79	52067.56
576.95	51760.95
577.11	51601.79
577.27	51765.63
577.43	51765.63
577.59	51470.72
577.75	50752.18
577.92	50237.26
578.08	49888.52
578.24	49977.46
578.40	50543.87
578.56	50775.58
578.72	50934.74
578.88	50784.94
579.04	51290.50
579.21	51372.42
579.37	51297.52
579.53	51075.17
579.69	51440.29
579.85	51566.68
580.01	51332.63
580.17	50548.55
580.33	50670.26
580.49	50939.42
580.65	51157.09
580.82	51297.52
580.98	51475.40
581.14	51023.68
581.30	51173.47
581.46	51105.60
581.62	51501.15
581.78	51346.67
581.94	51955.21
582.10	51676.69
582.26	51683.71
582.42	51746.90
582.58	51587.75
582.74	51419.23
582.90	51657.96
583.06	51566.68
583.22	51650.94
583.38	50958.14
583.54	50969.85
583.70	51164.11
583.86	51281.14
584.02	51114.96
584.18	51096.24
584.34	50974.53
584.50	51047.08
584.66	50679.62
584.82	50195.13
584.98	50157.68
585.14	49474.24
585.30	49490.63
585.46	49155.93
585.62	48769.74
585.78	48891.45
585.94	49045.93
586.10	49680.21
586.26	49982.14
586.42	49806.60
586.58	50677.28
586.74	50485.36
586.90	50061.72
587.06	49916.61
587.22	49769.15
587.38	49392.33
587.54	49181.68
587.70	49127.84
587.86	48713.57
588.02	48109.71
588.18	48098.01
588.34	46941.78
588.49	44343.79
588.65	42466.68
588.81	42745.20
588.97	42841.17
589.13	42621.16
589.29	42291.14
589.45	43519.92
589.61	44751.04
589.77	46227.92
589.93	47246.05
590.08	47412.23
590.24	47796.08
590.40	47962.26
590.56	47999.71
590.72	47920.13
590.88	47370.10
591.04	47250.74
591.20	46810.71
591.35	46995.62
591.51	47414.57
591.67	47126.69
591.83	47203.92
591.99	47269.46
592.15	47110.30
592.31	47412.23
592.46	47290.52
592.62	47136.05
592.78	46766.24
592.94	47072.85
593.10	47004.98
593.26	47508.19
593.41	47690.76
593.57	47683.73
593.73	46431.55
593.89	46791.99
594.05	46693.69
594.20	45925.99
594.36	45345.54
594.52	45469.59
594.68	45364.26
594.84	45979.82
594.99	46209.20
595.15	46071.10
595.31	46469.00
595.47	46487.72
595.62	46375.37
595.78	47012.00
595.94	47224.99
596.10	46972.21
596.25	46639.86
596.41	46340.27
596.57	46347.29
596.73	46401.12
596.88	46305.16
597.04	46157.70
597.20	45642.79
597.36	45860.46
597.51	46071.10
597.67	45876.84
597.83	45804.28
597.99	45694.28
598.14	44912.54
598.30	45294.05
598.46	45008.50
598.61	45162.98
598.77	45488.31
598.93	45511.72
599.09	45696.62
599.24	46080.47
599.40	45617.04
599.56	45890.88
599.71	45331.50
599.87	45584.27
600.03	45406.39
600.18	45074.04
600.34	44669.12
600.50	44093.35
600.65	44507.63
600.81	44898.50
600.97	44748.70
601.12	44636.36
601.28	44999.14
601.44	44582.52
601.59	44406.98
601.75	43866.32
601.91	44062.93
602.06	43810.15
602.22	43863.98
602.37	43866.32
602.53	44470.18
602.69	45200.43
602.84	44994.46
603.00	45436.82
603.16	45525.76
603.31	45734.07
603.47	45535.12
603.62	45153.62
603.78	45067.02
603.94	45024.89
604.09	44992.12
604.25	44631.68
604.40	44533.37
604.56	44886.79
604.71	44952.33
604.87	44844.66
605.03	44423.37
605.18	43714.19
605.34	44184.63
605.49	44055.90
605.65	44205.70
605.80	44402.30
605.96	44027.82
606.12	43604.18
606.27	43899.09
606.43	43475.45
606.58	44203.36
606.74	43704.82
606.89	43793.76
607.05	44449.11
607.20	43983.35
607.36	43358.42
607.51	43187.56
607.67	42953.51
607.82	43131.39
607.98	43037.77
608.13	42480.72
608.29	42464.34
608.44	42483.06
608.60	42143.69
608.75	42272.42
608.91	43140.75
609.06	42270.08
609.22	42522.85
609.37	42405.83
609.53	42728.82
609.68	41963.46
609.84	41090.44
609.99	41308.11
610.15	41118.53
610.30	41741.11
610.46	41968.15
610.61	42085.17
610.76	42581.37
610.92	42621.16
611.07	42754.57
611.23	42899.68
611.38	42735.84
611.54	42265.39
611.69	41453.23
611.84	41036.61
612.00	40493.61
612.15	40556.80
612.31	41123.21
612.46	40900.86
612.62	40779.15
612.77	41139.60
612.92	41191.09
613.08	40786.18
613.23	39878.05
613.39	39419.30
613.54	39503.56
613.69	39620.59
613.85	39257.81
614.00	39835.92
614.15	40535.74
614.31	40238.49
614.46	40568.51
614.62	40542.76
614.77	40250.19
614.92	40212.74
615.08	39959.97
615.23	40282.96
615.38	39784.43
615.54	39306.96
615.69	38302.87
615.84	37446.23
616.00	37034.30
616.15	37844.12
616.30	37928.38
616.46	37755.18
616.61	37839.44
616.76	38295.85
616.92	38249.03
617.07	38775.66
617.22	38480.75
617.37	39199.29
617.53	39051.84
617.68	39353.77
617.83	39459.09
617.99	39356.11
618.14	39636.97
618.29	38925.45
618.45	38548.62
618.60	38043.07
618.75	37907.32
618.90	37923.70
619.06	38436.28
619.21	38752.25
619.36	39030.77
619.51	38698.42
619.67	38244.35
619.82	38824.81
619.97	38480.75
620.12	38068.81
620.28	38319.25
620.43	38770.97
620.58	38574.37
620.73	38197.54
620.89	37745.82
621.04	37769.22
621.19	37635.81
621.34	37151.32
621.49	37113.87
621.65	36973.44
621.80	37289.42
621.95	37010.89
622.10	37647.52
622.25	37376.01
622.41	36938.33
622.56	36758.11
622.71	36400.01
622.86	35880.41
623.01	36039.57
623.16	36140.21
623.32	36577.89
623.47	36708.96
623.62	36533.42
623.77	35880.41
623.92	35864.03
624.07	35154.85
624.23	34873.98
624.38	34934.84
624.53	35522.31
624.68	35318.68
624.83	35328.05
624.98	34787.38
625.13	34593.12
625.29	34656.31
625.44	34962.92
625.59	34693.76
625.74	34806.11
625.89	35374.86
626.04	35096.33
626.19	34873.98
626.34	35271.87
626.49	35295.28
626.65	34672.70
626.80	35030.80
626.95	35012.07
627.10	34569.71
627.25	33668.61
627.40	32704.31
627.55	32320.46
627.70	31971.72
627.85	32353.23
628.00	32526.42
628.15	33104.54
628.30	34197.57
628.45	33668.61
628.60	33443.91
628.76	33376.04
628.91	33277.74
629.06	33256.67
629.21	33156.03
629.36	32758.14
629.51	32512.38
629.66	32397.70
629.81	32264.28
629.96	32348.54
630.11	32936.02
630.26	33050.70
630.41	32919.63
630.56	32737.07
630.71	33029.64
630.86	32851.76
631.01	32238.54
631.16	31772.77
631.31	31707.24
631.46	30995.71
631.61	31709.58
631.76	31929.59
631.91	32236.20
632.06	32383.65
632.21	32624.73
632.36	32699.62
632.51	32685.58
632.66	32931.34
632.81	32680.90
632.96	32238.54
633.10	32119.17
633.25	31700.22
633.40	32009.17
633.55	32034.91
633.70	31887.46
633.85	31983.42
634.00	32002.14
634.15	31180.62
634.30	31580.85
634.45	32009.17
634.60	32154.28
634.75	32044.27
634.90	31707.24
635.05	32154.28
635.19	31969.38
635.34	31428.71
635.49	31599.57
635.64	31674.47
635.79	31054.23
635.94	30876.35
636.09	30937.20
636.24	31257.85
636.39	31227.43
636.53	31304.67
636.68	31077.63
636.83	31707.24
636.98	32055.98
637.13	31758.73
637.28	31842.99
637.43	31899.16
637.57	31737.66
637.72	31241.47
637.87	31414.67
638.02	31197.00
638.17	31321.05
638.32	31225.09
638.46	31433.39
638.61	31101.04
638.76	30740.60
638.91	30326.32
639.06	30349.73
639.20	30305.26
639.35	30579.10
639.50	30480.80
639.65	29951.84
639.80	29902.68
639.94	29989.28
640.09	30298.23
640.24	29926.09
640.39	30249.08
640.54	29575.01
640.68	29663.95
640.83	29673.31
640.98	29200.52
641.13	29556.28
641.27	29668.63
641.42	29394.79
641.57	29151.37
641.72	29305.85
641.86	29184.14
642.01	29383.09
642.16	29876.94
642.31	29624.16
642.45	29935.45
642.60	29172.44
642.75	29303.51
642.90	29343.30
643.04	28863.49
643.19	29013.28
643.34	29151.37
643.48	28652.84
643.63	28652.84
643.78	28819.02
643.93	29228.61
644.07	29343.30
644.22	29357.34
644.37	28959.45
644.51	28723.05
644.66	28662.20
644.81	28322.82
644.95	28648.16
645.10	28414.10
645.25	28130.90
645.39	28128.56
645.54	28041.96
645.69	27927.27
645.83	27304.69
645.98	27236.81
646.13	27721.30
646.27	27587.89
646.42	27349.16
646.57	27358.52
646.71	27377.25
646.86	27342.14
647.00	26941.91
647.15	26911.48
647.30	26757.00
647.44	26628.27
647.59	26656.36
647.74	26534.65
647.88	26700.83
648.03	26511.25
648.17	26834.24
648.32	27023.83
648.47	27005.10
648.61	26553.38
648.76	26867.01
648.90	25949.52
649.05	25064.80
649.20	24589.67
649.34	24692.65
649.49	24973.52
649.63	25806.75
649.78	26040.80
649.92	26466.78
650.07	26967.65
650.21	26923.18
650.36	26668.06
650.51	26759.34
650.65	27019.14
650.80	26911.48
650.94	26836.58
651.09	26221.02
651.23	25738.87
651.38	25406.52
651.52	24987.56
651.67	25191.19
651.81	25560.99
651.96	26111.02
652.10	26129.74
652.25	25867.60
652.39	26464.44
652.54	26321.66
652.68	25759.94
652.83	25687.38
652.97	26087.61
653.12	25869.94
653.26	26321.66
653.41	25977.61
653.55	26019.74
653.70	26167.19
653.84	25909.73
653.99	25762.28
654.13	25193.53
654.27	24704.35
654.42	24222.20
654.56	24606.05
654.71	24767.55
654.85	24107.52
655.00	24425.83
655.14	23995.17
655.29	23920.28
655.43	23264.92
655.57	22256.15
655.72	20500.75
655.86	19140.90
656.01	18382.57
656.15	18745.35
656.30	19562.20
656.44	20844.81
656.58	21638.25
656.73	22338.07
656.87	22963.00
657.01	23379.61
657.16	23630.05
657.30	23611.32
657.45	23988.15
657.59	24180.07
657.73	24278.38
657.88	24503.07
658.02	24135.60
658.16	24219.86
658.31	24177.73
658.45	24051.34
658.60	23908.57
658.74	23929.64
658.88	24102.84
659.03	23239.18
659.17	23466.21
659.31	23735.37
659.46	23307.05
659.60	23896.87
659.74	24025.60
659.89	24166.03
660.03	23850.06
660.17	24374.34
660.32	24151.99
660.46	23847.72
660.60	23784.52
660.74	23765.80
660.89	23393.65
661.03	23047.26
661.17	23620.69
661.32	23285.99
661.46	23756.44
661.60	23637.07
661.74	23730.69
661.89	23679.20
662.03	23491.96
662.17	23241.52
662.31	23360.89
662.46	23506.00
662.60	23393.65
662.74	23030.87
662.88	23007.47
663.03	22677.45
663.17	22590.85
663.31	22644.68
663.45	22295.94
663.60	22726.60
663.74	22480.85
663.88	22455.10
664.02	22047.85
664.17	22752.35
664.31	22492.55
664.45	22483.19
664.59	22572.13
664.73	22838.95
664.88	22478.50
665.02	22190.62
665.16	22625.96
665.30	22284.24
665.44	22450.42
665.59	22153.17
665.73	22003.38
665.87	21752.94
666.01	21649.96
666.15	21717.83
666.29	21465.05
666.44	21654.64
666.58	21664.00
666.72	21317.60
666.86	21907.41
667.00	21701.45
667.14	21738.90
667.28	21572.72
667.43	21451.01
667.57	21451.01
667.71	21312.92
667.85	21532.93
667.99	21603.14
668.13	21062.48
668.27	21380.79
668.41	21111.63
668.56	21245.04
668.70	21132.70
668.84	21268.45
668.98	20872.90
669.12	21036.74
669.26	20915.03
669.40	20779.28
669.54	20943.11
669.68	20622.46
669.82	20669.27
669.96	20327.55
670.10	20702.04
670.25	20404.79
670.39	20095.84
670.53	20163.72
670.67	20226.91
670.81	20191.80
670.95	19985.83
671.09	19915.62
671.23	19686.25
671.37	19674.54
671.51	19667.52
671.65	19751.78
671.79	19777.53
671.93	19709.65
672.07	19625.39
672.21	19449.85
672.35	19667.52
672.49	19428.79
672.63	19754.12
672.77	19346.87
672.91	19325.80
673.05	19201.76
673.19	19297.72
673.33	19225.16
673.47	19311.76
673.61	19110.47
673.75	19363.25
673.89	19199.41
674.03	19229.84
674.17	18960.68
674.31	19040.26
674.45	18740.67
674.59	18253.84
674.73	18515.98
674.87	18569.81
675.01	18408.31
675.15	18455.12
675.29	18541.72
675.43	18422.36
675.56	18478.53
675.70	18436.40
675.84	17963.61
675.98	17902.76
676.12	18223.41
676.26	18211.71
676.40	18097.02
676.54	17902.76
676.68	17788.07
676.82	17619.55
676.96	17657.00
677.10	17877.01
677.23	17635.94
677.37	17500.19
677.51	17303.58
677.65	17177.19
677.79	17167.83
677.93	17317.62
678.07	17085.91
678.21	16987.61
678.34	16872.92
678.48	16503.12
678.62	16681.00
678.76	16926.75
678.90	16683.34
679.04	16889.31
679.18	16690.36
679.31	16716.11
679.45	16372.05
679.59	16350.98
679.73	16552.27
679.87	16400.13
680.00	16140.33
680.14	16149.70
680.28	15981.18
680.42	15927.35
680.56	15939.05
680.70	15737.76
680.83	15796.28
680.97	15330.51
681.11	15543.50
681.25	15613.71
681.39	15763.51
681.52	15709.68
681.66	15590.31
681.80	15506.05
681.94	15660.52
682.07	15632.44
682.21	15307.10
682.35	15288.38
682.49	15295.40
682.62	15232.21
682.76	14932.62
682.90	14944.32
683.04	15295.40
683.17	15061.35
683.31	15016.88
683.45	14853.04
683.59	14413.02
683.72	14183.65
683.86	13996.40
684.00	13958.96
684.13	13886.40
684.27	14127.47
684.41	13991.72
684.55	14239.82
684.68	14050.24
684.82	14232.80
684.96	13965.98
685.09	13820.86
685.23	13865.33
685.37	13652.34
685.50	13708.52
685.64	13509.57
685.78	13458.08
685.91	13420.63
686.05	13385.52
686.19	12996.99
686.32	12215.26
686.46	10902.22
686.60	9764.72
686.73	8889.35
686.87	8465.72
687.01	8273.79
687.14	8367.42
687.28	8835.52
687.42	9301.29
687.55	9378.53
687.69	10204.74
687.82	10649.44
687.96	11042.65
688.10	11143.29
688.23	10841.36
688.37	10406.02
688.50	10661.14
688.64	10218.78
688.78	10300.70
688.91	10298.36
689.05	10019.83
689.18	10008.13
689.32	9919.19
689.46	10214.10
689.59	10501.98
689.73	10328.78
689.86	10106.43
690.00	10216.44
690.13	10338.15
690.27	10293.68
690.41	10450.49
690.54	10303.04
690.68	10450.49
690.81	10658.80
690.95	10523.05
691.08	10668.16
691.22	10394.32
691.35	10478.58
691.49	10272.61
691.62	10293.68
691.76	10499.64
691.89	10384.96
692.03	10263.25
692.16	10019.83
692.30	10244.52
692.43	10260.91
692.57	10274.95
692.70	10040.90
692.84	10038.56
692.97	9891.10
693.11	9671.09
693.24	9853.66
693.38	9912.17
693.51	9596.20
693.65	9736.63
693.78	9628.96
693.92	9320.01
694.05	9359.80
694.19	9474.49
694.32	9521.30
694.45	9383.21
694.59	9460.45
694.72	9551.73
694.86	9312.99
694.99	9315.33
695.13	9254.48
695.26	9104.68
695.39	9020.42
695.53	9132.77
695.66	8982.98
695.80	8971.27
695.93	9104.68
696.07	9324.69
696.20	9174.90
696.33	9411.29
696.47	9434.70
696.60	9308.31
696.73	9427.68
696.87	9242.78
697.00	9434.70
697.14	9151.49
697.27	9137.45
697.40	8947.87
697.54	8798.07
697.67	8716.16
697.80	8564.02
697.94	8578.06
698.07	8657.64
698.21	8519.55
698.34	8278.47
698.47	8210.60
698.61	8131.02
698.74	8051.44
698.87	8194.22
699.01	8285.50
699.14	8290.18
699.27	8138.04
699.40	8444.65
699.54	8016.33
699.67	8037.40
699.80	8074.85
699.94	7922.71
700.07	7772.92
700.20	7751.85
700.34	7559.93
700.47	7307.15
700.60	7538.87
700.73	7555.25
700.87	7496.74
701.00	7403.11
701.13	7520.14
701.26	7206.51
701.40	7335.24
701.53	7068.42
701.66	7314.17
701.79	7295.45
701.93	7534.18
702.06	7391.41
702.19	7199.49
702.32	7323.54
702.46	7124.59
702.59	7143.32
702.72	6995.86
702.85	7204.17
702.99	7169.06
703.12	7250.98
703.25	7084.80
703.38	7033.31
703.51	7059.06
703.65	7005.22
703.78	6892.88
703.91	6829.68
704.04	6986.50
704.17	6958.41
704.31	6960.75
704.44	6860.11
704.57	7040.33
704.70	6876.49
704.83	6691.59
704.96	6597.97
705.10	6661.16
705.23	6600.31
>>>>>End Processed Spectral Data<<<<<
