SpectraSuite Data File
++++++++++++++++++++++++++++++++++++
Date: Mon Oct 07 14:53:25 GMT-05:00 2013
User: price-jones
Dark Spectrum Present: No
Reference Spectrum Present: No
Number of Sampled Component Spectra: 1
Spectrometers: USB2+H05261
Integration Time (usec): 100000 (USB2+H05261)
Spectra Averaged: 1 (USB2+H05261)
Boxcar Smoothing: 0 (USB2+H05261)
Correct for Electrical Dark: No (USB2+H05261)
Strobe/Lamp Enabled: No (USB2+H05261)
Correct for Detector Non-linearity: No (USB2+H05261)
Correct for Stray Light: No (USB2+H05261)
Number of Pixels in Processed Spectrum: 2048
>>>>>Begin Processed Spectral Data<<<<<
365.73	0.00
365.92	0.00
366.12	0.00
366.32	0.00
366.52	0.00
366.72	0.00
366.91	0.00
367.11	0.00
367.31	0.00
367.51	0.00
367.70	0.00
367.90	0.00
368.10	0.00
368.30	0.00
368.49	0.00
368.69	0.00
368.89	0.00
369.09	0.00
369.28	0.00
369.48	0.00
369.68	0.00
369.87	0.00
370.07	0.00
370.27	0.00
370.47	524.28
370.66	2626.08
370.86	3115.25
371.06	3452.29
371.25	3349.31
371.45	2993.55
371.65	2827.37
371.84	2740.77
372.04	2829.71
372.24	2923.33
372.44	3173.77
372.63	3185.47
372.83	3056.74
373.03	2658.85
373.22	2394.37
373.42	2600.34
373.62	2970.14
373.81	3173.77
374.01	3185.47
374.21	3009.93
374.40	2656.51
374.60	2808.64
374.79	3026.31
374.99	3758.90
375.19	3943.80
375.38	3880.61
375.58	3829.12
375.78	3779.97
375.97	3747.20
376.17	3794.01
376.37	3948.48
376.56	3939.12
376.76	4170.83
376.95	4437.66
377.15	4985.34
377.35	5053.22
377.54	5198.33
377.74	5249.82
377.93	5280.25
378.13	5156.20
378.33	4840.23
378.52	4411.91
378.72	4379.14
378.91	4231.69
379.11	4166.15
379.31	4030.40
379.50	4028.06
379.70	4510.21
379.89	4690.43
380.09	5004.07
380.28	5259.18
380.48	5322.38
380.68	5172.58
380.87	5039.17
381.07	4627.24
381.26	4255.09
381.46	4035.08
381.65	3925.08
381.85	3845.50
382.04	3475.70
382.24	3258.03
382.43	3253.34
382.63	3145.68
382.83	3141.00
383.02	3150.36
383.22	3030.99
383.41	3045.04
383.61	3440.59
383.80	3817.41
384.00	4262.12
384.19	5011.09
384.39	5371.53
384.58	5181.95
384.78	5036.83
384.97	4952.57
385.17	4718.52
385.36	4589.79
385.56	4311.27
385.75	4329.99
385.95	4917.47
386.14	5313.02
386.34	5373.87
386.53	5036.83
386.72	4807.46
386.92	4739.58
387.11	4924.49
387.31	5369.19
387.50	5242.80
387.70	4990.02
387.89	5041.51
388.09	5174.92
388.28	5020.45
388.48	5329.40
388.67	5614.95
388.86	6043.26
389.06	6668.19
389.25	6789.89
389.45	6888.20
389.64	6932.67
389.84	6822.66
390.03	6806.28
390.22	6778.19
390.42	6768.83
390.61	7517.80
390.81	7833.77
391.00	8173.15
391.19	7791.64
391.39	7709.72
391.58	7260.34
391.78	6860.11
391.97	6621.38
392.16	6176.67
392.36	5636.01
392.55	4472.76
392.75	3723.79
392.94	2888.22
393.13	2874.18
393.33	3391.44
393.52	4278.50
393.71	5324.72
393.91	6157.95
394.10	6640.10
394.29	7187.79
394.49	7901.65
394.68	8407.20
394.88	8587.43
395.07	8863.61
395.26	8594.45
395.46	8358.05
395.65	7983.57
395.84	6843.73
396.04	5696.86
396.23	4791.08
396.42	4030.40
396.62	3794.01
396.81	4428.29
397.00	5652.39
397.19	7122.25
397.39	8482.10
397.58	9465.13
397.77	10207.08
397.97	10520.71
398.16	10712.63
398.35	10970.09
398.55	11400.75
398.74	11836.09
398.93	12121.63
399.12	11686.29
399.32	11255.64
399.51	11728.42
399.70	12449.31
399.90	12308.88
400.09	12238.66
400.28	12128.66
400.47	12252.70
400.67	12861.24
400.86	13228.71
401.05	13341.05
401.24	13355.10
401.44	13504.89
401.63	13406.59
401.82	13743.63
402.01	13397.23
402.21	13549.36
402.40	13788.10
402.59	13401.91
402.78	13020.40
402.97	12348.67
403.17	12858.90
403.36	13575.11
403.55	14005.77
403.74	14494.94
403.93	13895.76
404.13	12666.98
404.32	12271.43
404.51	12896.35
404.70	14083.00
404.89	13907.46
405.09	13862.99
405.28	13451.06
405.47	13603.19
405.66	13259.13
405.85	13153.81
406.05	12709.11
406.24	12798.05
406.43	13387.86
406.62	13937.89
406.81	13921.51
407.00	13273.18
407.20	13165.51
407.39	13317.65
407.58	13764.69
407.77	14417.70
407.96	15009.86
408.15	15201.78
408.34	15236.89
408.54	16030.33
408.73	15768.19
408.92	15571.58
409.11	15337.53
409.30	14581.54
409.49	13479.15
409.68	12903.37
409.87	12453.99
410.07	13172.54
410.26	14207.05
410.45	15117.52
410.64	15428.81
410.83	15967.13
411.02	16472.69
411.21	16917.39
411.40	16765.26
411.59	16547.59
411.78	16821.43
411.98	16442.26
412.17	16835.47
412.36	16622.48
412.55	16294.81
412.74	16526.52
412.93	15693.29
413.12	15983.52
413.31	17626.57
413.50	17425.29
413.69	17799.77
413.88	17102.29
414.07	16556.95
414.26	16669.30
414.45	17177.19
414.64	17472.10
414.83	17455.72
415.02	17427.63
415.22	17151.45
415.41	17788.07
415.60	17879.35
415.79	18986.43
415.98	19283.67
416.17	19396.02
416.36	18951.32
416.55	18656.41
416.74	17804.46
416.93	17425.29
417.12	17142.08
417.31	17811.48
417.50	17858.29
417.69	18534.70
417.88	18497.25
418.07	18094.68
418.26	18057.23
418.45	18052.55
418.64	18843.65
418.83	19517.73
419.02	19236.86
419.21	19353.89
419.39	18082.98
419.58	17525.93
419.77	17462.74
419.96	18272.56
420.15	18977.06
420.34	19592.62
420.53	20428.20
420.72	20769.91
420.91	20744.17
421.10	20418.83
421.29	20290.10
421.48	19587.94
421.67	20652.89
421.86	19971.79
422.05	18668.11
422.24	16624.83
422.43	16720.79
422.61	18204.69
422.80	19749.44
422.99	19765.82
423.18	19164.31
423.37	18834.29
423.56	18862.38
423.75	18724.29
423.94	19351.55
424.13	18518.32
424.32	18822.59
424.50	18916.21
424.69	18279.58
424.88	18523.00
425.07	18211.71
425.26	18499.59
425.45	18326.39
425.64	17715.51
425.83	17713.17
426.01	18848.33
426.20	19414.74
426.39	19302.40
426.58	17846.58
426.77	16690.36
426.96	15854.79
427.15	16582.70
427.33	17907.44
427.52	18658.75
427.71	18853.02
427.90	18740.67
428.09	18188.30
428.28	17841.90
428.46	17116.34
428.65	16905.69
428.84	17270.81
429.03	17764.67
429.22	16594.40
429.40	15899.26
429.59	14546.43
429.78	12669.32
429.97	12795.71
430.16	13013.38
430.34	13004.02
430.53	13048.49
430.72	13312.97
430.91	14675.16
431.10	17345.71
431.28	20346.28
431.47	21752.94
431.66	22281.90
431.85	20355.64
432.03	18677.48
432.22	17685.09
432.41	18401.29
432.60	20409.47
432.79	21570.38
432.97	21961.25
433.16	21226.32
433.35	19648.80
433.54	17881.69
433.72	16456.31
433.91	17137.40
434.10	19136.22
434.28	20596.71
434.47	21397.18
434.66	21268.45
434.85	20673.95
435.03	20379.04
435.22	21312.92
435.41	22511.27
435.59	22274.88
435.78	22834.27
435.97	23150.24
436.16	23304.71
436.34	22897.46
436.53	22462.12
436.72	22735.96
436.90	21472.07
437.09	21343.35
437.28	21097.59
437.46	21771.66
437.65	21600.80
437.84	20154.35
438.02	18551.09
438.21	18424.70
438.40	19353.89
438.58	21245.04
438.77	21724.85
438.96	21617.19
439.14	23000.44
439.33	23267.27
439.52	23534.09
439.70	22899.80
439.89	22850.65
440.08	21891.03
440.26	21930.82
440.45	22843.63
440.63	24374.34
440.82	25542.27
441.01	25120.97
441.19	24964.15
441.38	25462.69
441.57	26232.72
441.75	26937.23
441.94	26529.97
442.12	26256.13
442.31	27115.11
442.50	27037.87
442.68	26455.08
442.87	26206.98
443.05	25617.16
443.24	26408.26
443.43	26618.91
443.61	27243.84
443.80	27576.19
443.98	26382.52
444.17	26295.92
444.35	27854.72
444.54	28184.73
444.73	27627.68
444.91	26876.37
445.10	25340.98
445.28	24177.73
445.47	24067.73
445.65	24168.37
445.84	24961.81
446.02	25682.70
446.21	26087.61
446.39	26185.91
446.58	26707.85
446.77	27218.09
446.95	27157.24
447.14	27850.03
447.32	28432.83
447.51	28222.18
447.69	26588.49
447.88	26328.69
448.06	27009.78
448.25	27454.48
448.43	27716.62
448.62	26937.23
448.80	27140.85
448.99	27014.46
449.17	27381.93
449.36	27725.99
449.54	28472.62
449.73	28716.03
449.91	29649.91
450.10	30319.30
450.28	30274.83
450.46	30188.23
450.65	30178.87
450.83	29862.90
451.02	29216.91
451.20	29254.36
451.39	29165.42
451.57	29109.24
451.76	29294.14
451.94	28716.03
452.13	28278.35
452.31	26946.59
452.49	26036.12
452.68	26169.53
452.86	26438.69
453.05	26548.70
453.23	27297.67
453.42	27812.59
453.60	28416.44
453.78	29067.11
453.97	28290.06
454.15	28645.82
454.34	27786.84
454.52	28299.42
454.70	27330.44
454.89	28173.03
455.07	27843.01
455.26	28299.42
455.44	29631.18
455.62	29869.92
455.81	30199.93
455.99	30024.39
456.17	29408.83
456.36	29317.55
456.54	30359.09
456.73	30174.19
456.91	31187.64
457.09	31204.02
457.28	31702.56
457.46	30548.67
457.64	29919.07
457.83	29046.05
458.01	28584.96
458.19	29450.96
458.38	29535.22
458.56	30642.29
458.74	30609.53
458.93	29883.96
459.11	30082.91
459.29	29834.81
459.48	29778.64
459.66	29933.11
459.84	30047.80
460.03	30169.51
460.21	30239.72
460.39	30890.39
460.57	31309.35
460.76	31431.05
460.94	31496.59
461.12	31005.08
461.31	31040.18
461.49	30932.52
461.67	31232.11
461.85	32144.92
462.04	32102.79
462.22	32538.13
462.40	31821.92
462.59	31936.61
462.77	31730.64
462.95	32034.91
463.13	31470.84
463.32	30969.97
463.50	30993.37
463.68	31173.60
463.86	31229.77
464.05	30857.62
464.23	29825.45
464.41	29752.89
464.59	29448.62
464.78	31304.67
464.96	30862.30
465.14	30267.81
465.32	31220.41
465.50	31744.69
465.69	32191.73
465.87	31395.95
466.05	30941.88
466.23	29612.46
466.41	28863.49
466.60	29762.25
466.78	29474.37
466.96	30511.22
467.14	30335.68
467.32	30948.90
467.51	31365.52
467.69	30213.98
467.87	30082.91
468.05	30792.09
468.23	30534.63
468.41	30806.13
468.60	30960.61
468.78	31302.32
468.96	30551.01
469.14	31505.95
469.32	31541.06
469.50	30375.47
469.69	30237.38
469.87	30012.69
470.05	29914.39
470.23	29811.40
470.41	30134.40
470.59	30703.15
470.77	30457.39
470.95	31213.38
471.14	31866.39
471.32	31714.26
471.50	33844.15
471.68	33280.08
471.86	33883.94
472.04	33890.96
472.22	34052.45
472.40	32126.19
472.58	32135.56
472.77	31651.06
472.95	32692.60
473.13	33158.37
473.31	32268.97
473.49	32428.12
473.67	33141.99
473.85	33495.41
474.03	33886.28
474.21	34377.79
474.39	34637.59
474.57	34864.62
474.75	35028.46
474.93	34501.84
475.12	33270.72
475.30	33717.76
475.48	34003.30
475.66	34562.69
475.84	33872.23
476.02	33759.89
476.20	32811.97
476.38	33879.25
476.56	34569.71
476.74	35405.28
476.92	35424.01
477.10	36009.14
477.28	36804.92
477.46	36701.94
477.64	37837.10
477.82	37689.65
478.00	37443.89
478.18	36992.17
478.36	36875.14
478.54	36730.03
478.72	36744.07
478.90	38284.14
479.08	39129.08
479.26	39711.87
479.44	39541.01
479.62	39281.21
479.80	39381.85
479.98	39445.05
480.16	39414.62
480.34	39508.24
480.52	39826.56
480.70	39952.94
480.88	39634.63
481.06	40364.88
481.24	41312.80
481.41	41930.70
481.59	42253.69
481.77	42508.81
481.95	41254.28
482.13	41624.09
482.31	40959.38
482.49	42272.42
482.67	41560.89
482.85	41930.70
483.03	42492.43
483.21	43203.95
483.39	42820.10
483.57	42539.24
483.74	42270.08
483.92	42522.85
484.10	42625.84
484.28	43267.14
484.46	43707.16
484.64	44594.23
484.82	43873.34
485.00	42822.44
485.18	42497.11
485.35	41027.25
485.53	37766.88
485.71	34455.03
485.89	34103.95
486.07	35962.33
486.25	39131.42
486.43	41235.56
486.61	41748.14
486.78	41598.34
486.96	42272.42
487.14	43882.70
487.32	44603.59
487.50	45670.87
487.68	46412.82
487.85	47019.02
488.03	47271.80
488.21	46824.76
488.39	46000.89
488.57	45485.97
488.75	44896.16
488.92	46141.32
489.10	48704.21
489.28	50117.89
489.46	50696.00
489.64	50581.32
489.81	50642.17
489.99	50417.48
490.17	50773.24
490.35	50941.76
490.53	50316.84
490.70	49720.00
490.88	49860.43
491.06	50850.48
491.24	50904.31
491.41	49790.22
491.59	47784.38
491.77	46597.73
491.95	48390.58
492.13	49244.87
492.30	50827.07
492.48	51915.42
492.66	52451.41
492.84	52580.13
493.01	52460.77
493.19	51660.30
493.37	51267.09
493.54	50815.37
493.72	51578.39
493.90	52636.31
494.08	53528.05
494.25	53937.65
494.43	54204.47
494.61	54326.17
494.79	54761.51
494.96	54459.58
495.14	54092.12
495.32	52835.25
495.49	51892.02
495.67	53118.46
495.85	54724.07
496.02	55110.25
496.20	54679.60
496.38	54230.21
496.55	54408.09
496.73	54595.34
496.91	54862.16
497.09	55440.27
497.26	55774.97
497.44	55000.25
497.62	54302.77
497.79	53855.73
497.97	52341.40
498.14	52631.63
498.32	53813.60
498.50	54656.19
498.67	55351.33
498.85	55136.00
499.03	55262.39
499.20	55622.83
499.38	55531.55
499.56	55231.96
499.73	54784.92
499.91	54667.89
500.08	54021.90
500.26	52868.02
500.44	53801.89
500.61	54482.99
500.79	54227.87
500.97	53797.21
501.14	53631.04
501.32	53478.90
501.49	53312.72
501.67	53492.94
501.84	54145.95
502.02	54623.42
502.20	55093.87
502.37	55016.63
502.55	55000.25
502.72	55503.46
502.90	56133.07
503.07	56002.00
503.25	55606.45
503.43	54550.87
503.60	53984.46
503.78	53240.17
503.95	53820.62
504.13	55079.83
504.30	56175.20
504.48	55877.95
504.65	55288.13
504.83	55449.63
505.01	56130.73
505.18	56547.34
505.36	56837.57
505.53	57080.98
505.71	57291.63
505.88	57303.34
506.06	56486.49
506.23	56467.76
506.41	55990.30
506.58	56142.43
506.76	56034.77
506.93	56046.47
507.11	55870.93
507.28	56037.11
507.46	55693.05
507.63	55072.81
507.81	54747.47
507.98	55002.59
508.16	55894.33
508.33	56404.57
508.50	56601.18
508.68	57080.98
508.85	57441.43
509.03	57525.69
509.20	57432.07
509.38	56479.47
509.55	55959.87
509.73	55814.76
509.90	56383.51
510.08	56755.65
510.25	56718.20
510.42	56530.96
510.60	56301.59
510.77	56711.18
510.95	57174.61
511.12	57310.36
511.30	57521.01
511.47	57794.85
511.64	57834.64
511.82	57340.78
511.99	56715.86
512.17	56257.12
512.34	55922.42
512.51	55859.23
512.69	56313.29
512.86	56488.83
513.04	56882.04
513.21	56907.79
513.38	56404.57
513.56	55847.52
513.73	55079.83
513.90	55419.20
514.08	55709.43
514.25	55746.88
514.43	56030.08
514.60	56329.67
514.77	56456.06
514.95	56453.72
515.12	56341.38
515.29	56444.36
515.47	57130.14
515.64	57244.82
515.81	56882.04
515.99	56374.14
516.16	54862.16
516.33	52769.72
516.51	50714.73
516.68	49893.20
516.85	49397.01
517.03	50050.02
517.20	52739.29
517.37	55543.25
517.54	56425.64
517.72	55945.83
517.89	53345.49
518.06	50960.48
518.24	51100.92
518.41	53406.34
518.58	54752.15
518.75	55290.48
518.93	55234.30
519.10	55458.99
519.27	55688.37
519.45	56020.72
519.62	56685.43
519.79	57137.16
519.96	56734.59
520.14	56413.93
520.31	55622.83
520.48	55533.89
520.65	55765.60
520.83	56945.23
521.00	57403.98
521.17	57125.46
521.34	56577.77
521.52	56814.16
521.69	57450.79
521.86	57642.71
522.03	57499.94
522.20	56252.44
522.38	55159.41
522.55	55117.28
522.72	55852.20
522.89	55917.74
523.07	56100.30
523.24	56584.79
523.41	57251.84
523.58	57546.75
523.75	58145.93
523.92	57801.87
524.10	57970.39
524.27	57902.51
524.44	57762.08
524.61	57581.86
524.78	57319.72
524.96	57188.65
525.13	57277.59
525.30	57535.05
525.47	58169.33
525.64	57972.73
525.81	57045.88
525.98	55442.61
526.16	54286.39
526.33	53825.30
526.50	53169.95
526.67	52846.96
526.84	53516.35
527.01	54361.28
527.18	55449.63
527.36	56217.33
527.53	57181.63
527.70	57420.36
527.87	56933.53
528.04	56350.74
528.21	56865.66
528.38	57511.64
528.55	58085.07
528.72	58213.80
528.89	58644.46
529.07	58269.98
529.24	57696.55
529.41	57013.11
529.58	56460.74
529.75	56596.49
529.92	57153.54
530.09	57331.42
530.26	57759.74
530.43	58028.90
530.60	58269.98
530.77	58356.58
530.94	58546.16
531.11	58085.07
531.28	57504.62
531.46	57357.17
531.63	57640.37
531.80	57528.03
531.97	56942.89
532.14	56175.20
532.31	55405.16
532.48	54602.36
532.65	54663.21
532.82	55653.26
532.99	56568.41
533.16	57134.82
533.33	57532.71
533.50	57364.19
533.67	56720.54
533.84	56076.90
534.01	56577.77
534.18	56626.92
534.35	57045.88
534.52	56748.63
534.69	56849.27
534.86	57198.01
535.03	57677.82
535.20	58042.95
535.37	58211.46
535.54	58394.03
535.71	58216.14
535.88	57654.42
536.05	57036.51
536.22	56725.22
536.38	56376.48
536.55	55779.65
536.72	55292.82
536.89	55220.26
537.06	56058.17
537.23	56973.32
537.40	57109.07
537.57	57305.68
537.74	57144.18
537.91	56891.40
538.08	56811.82
538.25	56980.34
538.42	57244.82
538.59	57153.54
538.75	56399.89
538.92	56039.45
539.09	56053.49
539.26	55622.83
539.43	55332.60
539.60	55711.77
539.77	55800.71
539.94	55510.49
540.11	54904.29
540.28	54241.92
540.44	54391.71
540.61	54908.97
540.78	55063.44
540.95	55571.34
541.12	56062.85
541.29	56217.33
541.46	56397.55
541.62	56516.92
541.79	56271.16
541.96	55547.93
542.13	55496.44
542.30	56076.90
542.47	56250.09
542.63	55845.18
542.80	55564.32
542.97	55987.95
543.14	55594.74
543.31	55899.01
543.48	56285.20
543.64	57038.86
543.81	57347.81
543.98	57015.45
544.15	56533.30
544.32	55760.92
544.48	56039.45
544.65	56289.88
544.82	56772.03
544.99	56582.45
545.16	56114.34
545.32	55873.27
545.49	56610.54
545.66	57265.89
545.83	56767.35
546.00	56360.10
546.16	56041.79
546.33	55990.30
546.50	55985.61
546.67	56350.74
546.83	56212.65
547.00	55969.23
547.17	55442.61
547.34	55093.87
547.50	54873.86
547.67	55030.68
547.84	55395.80
548.00	55620.49
548.17	56191.58
548.34	55903.70
548.51	56016.04
548.67	56114.34
548.84	56081.58
549.01	56072.21
549.18	55819.44
549.34	55824.12
549.51	55814.76
549.68	55910.72
549.84	55561.98
550.01	55451.97
550.18	55405.16
550.34	55381.76
550.51	55360.69
550.68	55679.00
550.84	54843.43
551.01	55405.16
551.18	55199.19
551.34	55285.79
551.51	55622.83
551.68	55964.55
551.84	56090.94
552.01	55817.10
552.18	55833.48
552.34	54525.12
552.51	54490.01
552.68	54506.40
552.84	54717.04
553.01	55000.25
553.18	54962.80
553.34	55100.89
553.51	55098.55
553.67	55821.78
553.84	55826.46
554.01	55524.53
554.17	55388.78
554.34	55683.69
554.51	55615.81
554.67	56046.47
554.84	55744.54
555.00	55257.71
555.17	55091.53
555.33	55145.36
555.50	55227.28
555.67	54908.97
555.83	54990.89
556.00	54459.58
556.16	55065.78
556.33	54199.79
556.50	54045.31
556.66	54064.03
556.83	53762.11
556.99	53914.24
557.16	54035.95
557.32	54450.22
557.49	54717.04
557.65	54358.94
557.82	54234.89
557.98	54232.55
558.15	53614.65
558.32	52907.81
558.48	52196.29
558.65	52296.93
558.81	52753.33
558.98	53223.78
559.14	53375.92
559.31	53322.08
559.47	53535.07
559.64	52626.95
559.80	52655.03
559.97	52722.91
560.13	53071.65
560.30	54141.27
560.46	54637.47
560.63	54967.48
560.79	54752.15
560.96	54590.66
561.12	53186.33
561.29	52383.53
561.45	52559.07
561.61	53064.63
561.78	53570.18
561.94	53378.26
562.11	53249.53
562.27	53123.14
562.44	53324.43
562.60	53741.04
562.77	54255.96
562.93	53499.97
563.10	53719.98
563.26	53097.39
563.42	53272.93
563.59	52839.93
563.75	53193.36
563.92	52790.78
564.08	52781.42
564.24	53366.55
564.41	53492.94
564.57	53263.57
564.74	53099.73
564.90	52966.32
565.07	52631.63
565.23	52332.04
565.39	51653.28
565.56	51746.90
565.72	51152.41
565.88	51646.26
566.05	52037.13
566.21	51826.48
566.38	51955.21
566.54	52303.95
566.70	52437.36
566.87	52835.25
567.03	52837.59
567.19	53095.05
567.36	53024.84
567.52	52898.45
567.68	52018.41
567.85	51840.53
568.01	51105.60
568.17	50707.71
568.34	51042.40
568.50	50925.38
568.66	51042.40
568.83	51201.56
568.99	51327.95
569.15	51817.12
569.32	51847.55
569.48	51143.05
569.64	51231.99
569.81	51079.85
569.97	50873.88
570.13	50370.67
570.30	50192.79
570.46	49752.77
570.62	48868.05
570.78	48563.78
570.95	48980.39
571.11	50110.87
571.27	50394.07
571.43	50443.23
571.60	50930.06
571.76	50979.21
571.92	51334.97
572.09	51341.99
572.25	51868.61
572.41	51571.36
572.57	51484.76
572.74	51292.84
572.90	50742.81
573.06	50740.47
573.22	50667.92
573.38	50887.93
573.55	50794.31
573.71	51000.27
573.87	50600.04
574.03	50513.44
574.20	50693.66
574.36	50096.83
574.52	50373.01
574.68	50103.85
574.84	49258.91
575.01	48992.09
575.17	48912.52
575.33	49284.66
575.49	49612.34
575.65	49565.52
575.82	49736.38
575.98	49329.13
576.14	49485.95
576.30	49698.94
576.46	49677.87
576.62	49855.75
576.79	49867.45
576.95	49343.17
577.11	49326.79
577.27	49457.86
577.43	49687.23
577.59	48807.19
577.75	48751.02
577.92	47936.51
578.08	47889.70
578.24	47737.57
578.40	47903.74
578.56	48559.09
578.72	48399.94
578.88	48732.29
579.04	49127.84
579.21	49118.48
579.37	48858.68
579.53	49340.83
579.69	49081.03
579.85	49106.78
580.01	49036.56
580.17	48523.99
580.33	48109.71
580.49	48603.56
580.65	49198.06
580.82	48882.09
580.98	48886.77
581.14	48774.42
581.30	48577.82
581.46	48692.50
581.62	48538.03
581.78	49338.49
581.94	49736.38
582.10	49179.34
582.26	49343.17
582.42	49326.79
582.58	49340.83
582.74	49251.89
582.90	49277.64
583.06	49078.69
583.22	49120.82
583.38	48715.91
583.54	48552.07
583.70	48783.79
583.86	48980.39
584.02	48713.57
584.18	48889.11
584.34	48516.96
584.50	48474.84
584.66	48271.21
584.82	47875.66
584.98	47973.96
585.14	47468.40
585.30	46761.56
585.46	46335.59
585.62	46712.41
585.78	46864.55
585.94	46747.52
586.10	47374.78
586.26	47250.74
586.42	47454.36
586.58	48006.73
586.74	47449.68
586.90	47569.05
587.06	47208.61
587.22	47545.64
587.38	47278.82
587.54	46717.09
587.70	46555.60
587.86	46323.88
588.02	45823.01
588.18	45631.08
588.34	44797.85
588.49	42405.83
588.65	40065.29
588.81	39629.95
588.97	40306.37
589.13	40044.23
589.29	39246.10
589.45	40809.58
589.61	41958.78
589.77	43283.53
589.93	43770.36
590.08	44725.30
590.24	45116.17
590.40	45500.01
590.56	45525.76
590.72	44989.78
590.88	44250.17
591.04	44048.88
591.20	44095.69
591.35	44217.40
591.51	44540.39
591.67	44605.93
591.83	44664.44
591.99	44470.18
592.15	44554.44
592.31	44959.35
592.46	44619.97
592.62	44135.48
592.78	43803.13
592.94	44252.51
593.10	44107.40
593.26	44975.73
593.41	44769.77
593.57	44575.50
593.73	44149.53
593.89	43721.21
594.05	43077.56
594.20	43276.51
594.36	42518.17
594.52	42319.23
594.68	42703.07
594.84	43026.07
594.99	43512.90
595.15	43466.09
595.31	43711.84
595.47	43672.06
595.62	44079.31
595.78	43828.87
595.94	44334.43
596.10	44109.74
596.25	44060.58
596.41	43496.52
596.57	43299.91
596.73	43894.41
596.88	43679.08
597.04	44107.40
597.20	42862.23
597.36	43246.08
597.51	43414.60
597.67	42857.55
597.83	42948.83
597.99	43086.92
598.14	42682.01
598.30	42183.48
598.46	42436.25
598.61	42258.37
598.77	42866.91
598.93	42546.26
599.09	43274.16
599.24	43070.54
599.40	43028.41
599.56	42752.23
599.71	42721.80
599.87	42997.98
600.03	42487.74
600.18	42501.79
600.34	42136.66
600.50	41769.20
600.65	42036.02
600.81	41904.95
600.97	42197.52
601.12	41808.99
601.28	41935.38
601.44	41516.42
601.59	41500.04
601.75	41057.68
601.91	41109.17
602.06	41027.25
602.22	41420.46
602.37	40950.01
602.53	41467.27
602.69	41989.21
602.84	42220.92
603.00	42712.44
603.16	42887.98
603.31	42899.68
603.47	42593.07
603.62	42146.03
603.78	42190.50
603.94	41968.15
604.09	42089.85
604.25	41738.77
604.40	41317.48
604.56	41921.34
604.71	41808.99
604.87	41659.20
605.03	41570.25
605.18	41174.70
605.34	41118.53
605.49	40910.22
605.65	41350.24
605.80	41195.77
605.96	40861.07
606.12	40509.99
606.27	40605.95
606.43	40470.20
606.58	41256.62
606.74	41270.67
606.89	41003.85
607.05	41235.56
607.20	40825.96
607.36	39997.41
607.51	40577.87
607.67	40009.12
607.82	40486.59
607.98	40055.93
608.13	39777.40
608.29	39365.47
608.44	39676.76
608.60	39108.01
608.75	39711.87
608.91	39423.98
609.06	39124.40
609.22	40163.59
609.37	39367.81
609.53	39693.15
609.68	39311.64
609.84	38501.81
609.99	37937.74
610.15	38405.85
610.30	38892.68
610.46	38761.61
610.61	39512.92
610.76	39761.02
610.92	39599.52
611.07	39936.56
611.23	39943.58
611.38	40041.88
611.54	39346.75
611.69	39012.05
611.84	37764.54
612.00	37872.21
612.15	37748.16
612.31	38389.47
612.46	37811.35
612.62	38174.14
612.77	38092.22
612.92	38756.93
613.08	38033.71
613.23	36921.95
613.39	36484.27
613.54	36245.54
613.69	36437.46
613.85	36123.83
614.00	37055.36
614.15	37736.46
614.31	37425.17
614.46	37371.33
614.62	37179.41
614.77	37383.04
614.92	37266.01
615.08	36816.63
615.23	36912.59
615.38	36978.12
615.54	35878.07
615.69	35676.79
615.84	34490.13
616.00	34209.27
616.15	34529.92
616.30	35178.25
616.46	35044.84
616.61	34920.79
616.76	35459.12
616.92	35440.39
617.07	35938.93
617.22	36060.63
617.37	36002.12
617.53	36385.97
617.68	36442.14
617.83	36278.30
617.99	36732.37
618.14	36229.15
618.29	36282.98
618.45	35854.67
618.60	35351.45
618.75	34824.83
618.90	34845.90
619.06	35440.39
619.21	35597.21
619.36	35922.54
619.51	35739.98
619.67	35328.05
619.82	35136.12
619.97	35456.78
620.12	35335.07
620.28	35346.77
620.43	35796.15
620.58	35779.77
620.73	35484.86
620.89	35299.96
621.04	34939.52
621.19	34721.85
621.34	34415.24
621.49	34183.52
621.65	34188.21
621.80	34476.09
621.95	34253.74
622.10	34450.35
622.25	34359.06
622.41	34419.92
622.56	33638.18
622.71	33792.65
622.86	33621.80
623.01	33846.49
623.16	33783.29
623.32	33280.08
623.47	33436.89
623.62	33553.92
623.77	33181.77
623.92	33376.04
624.07	32432.80
624.23	32187.05
624.38	32135.56
624.53	32479.61
624.68	32636.43
624.83	32273.65
624.98	32332.16
625.13	31779.79
625.29	31985.76
625.44	31821.92
625.59	32109.81
625.74	31634.68
625.89	32723.03
626.04	32418.76
626.19	32259.60
626.34	32505.36
626.49	32208.11
626.65	32095.77
626.80	32247.90
626.95	31934.27
627.10	31861.71
627.25	31608.93
627.40	30675.06
627.55	29769.27
627.70	29542.24
627.85	29670.97
628.00	30431.65
628.15	30628.25
628.30	30817.83
628.45	30923.16
628.60	30888.05
628.76	30810.81
628.91	30920.82
629.06	30529.95
629.21	30450.37
629.36	30171.85
629.51	29855.87
629.66	30054.82
629.81	29422.87
629.96	29572.67
630.11	30047.80
630.26	30293.55
630.41	30548.67
630.56	30160.14
630.71	30300.58
630.86	30157.80
631.01	29624.16
631.16	29682.67
631.31	29254.36
631.46	28783.91
631.61	29060.09
631.76	29074.13
631.91	29607.78
632.06	29841.83
632.21	30143.76
632.36	29984.60
632.51	29818.42
632.66	30263.13
632.81	29715.44
632.96	29846.51
633.10	29692.04
633.25	29427.56
633.40	29099.88
633.55	29226.27
633.70	28917.32
633.85	29273.08
634.00	29266.06
634.15	29254.36
634.30	29095.20
634.45	29319.89
634.60	29008.60
634.75	29577.35
634.90	29312.87
635.05	28952.43
635.19	29303.51
635.34	29233.29
635.49	28903.28
635.64	28704.33
635.79	28662.20
635.94	28418.78
636.09	28423.47
636.24	28758.16
636.39	28910.30
636.53	28828.38
636.68	28889.23
636.83	28730.08
636.98	28971.15
637.13	29249.67
637.28	29329.25
637.43	29074.13
637.57	28980.51
637.72	28498.36
637.87	28947.75
638.02	28397.72
638.17	28861.15
638.32	28648.16
638.46	28409.42
638.61	28865.83
638.76	28247.93
638.91	27864.08
639.06	27999.83
639.20	27843.01
639.35	27768.12
639.50	27417.04
639.65	27384.27
639.80	27552.79
639.94	27889.82
640.09	27819.61
640.24	27859.40
640.39	27461.51
640.54	27150.21
640.68	27126.81
640.83	27115.11
640.98	26918.50
641.13	26824.88
641.27	26822.54
641.42	26768.71
641.57	26871.69
641.72	26937.23
641.86	26948.93
642.01	26808.50
642.16	27091.70
642.31	27126.81
642.45	27758.75
642.60	26691.47
642.75	27075.32
642.90	26951.27
643.04	26347.41
643.19	26309.96
643.34	26632.96
643.48	26445.71
643.63	26455.08
643.78	26352.09
643.93	26319.32
644.07	26787.43
644.22	26752.32
644.37	26703.17
644.51	26188.25
644.66	26368.48
644.81	26445.71
644.95	25986.97
645.10	26106.34
645.25	26005.69
645.39	25553.97
645.54	25755.26
645.69	25521.20
645.83	25139.69
645.98	25022.67
646.13	24940.75
646.27	25230.98
646.42	25209.91
646.57	24900.96
646.71	25083.52
646.86	25174.80
647.00	24950.11
647.15	24519.45
647.30	24577.97
647.44	24489.03
647.59	24435.19
647.74	24702.01
647.88	24357.96
648.03	24470.30
648.17	24250.29
648.32	24334.55
648.47	24748.82
648.61	24699.67
648.76	24535.84
648.90	24130.92
649.05	23030.87
649.20	22883.42
649.34	22504.25
649.49	22649.36
649.63	23590.26
649.78	23634.73
649.92	24233.91
650.07	24383.70
650.21	24327.53
650.36	24524.13
650.51	24662.22
650.65	24772.23
650.80	24547.54
650.94	24327.53
651.09	24037.30
651.23	23503.66
651.38	22670.43
651.52	23234.50
651.67	23281.31
651.81	23302.37
651.96	23381.95
652.10	23889.85
652.25	23653.45
652.39	23831.33
652.54	23716.65
652.68	23826.65
652.83	23405.36
652.97	23548.13
653.12	23428.76
653.26	23297.69
653.41	23779.84
653.55	23758.78
653.70	23632.39
653.84	23735.37
653.99	23080.02
654.13	23154.92
654.27	22558.08
654.42	22412.97
654.56	22192.96
654.71	22607.23
654.85	22342.75
655.00	22064.23
655.14	21778.68
655.29	21713.15
655.43	21406.54
655.57	20215.21
655.72	18752.37
655.86	17448.69
656.01	16650.57
656.15	16711.42
656.30	17949.57
656.44	18993.45
656.58	19391.34
656.73	20367.34
656.87	20826.09
657.01	21036.74
657.16	21308.24
657.30	21593.78
657.45	21900.39
657.59	22160.19
657.73	22082.95
657.88	22160.19
658.02	22443.40
658.16	22003.38
658.31	21809.11
658.45	21996.35
658.60	21577.40
658.74	21404.20
658.88	21434.63
659.03	21404.20
659.17	21507.18
659.31	21479.10
659.46	21401.86
659.60	21270.79
659.74	22099.34
659.89	21804.43
660.03	21823.16
660.17	22195.30
660.32	21855.92
660.46	21970.61
660.60	21338.66
660.74	21231.00
660.89	21584.42
661.03	21563.36
661.17	21380.79
661.32	21706.13
661.46	21656.98
661.60	21188.87
661.74	21429.94
661.89	21537.61
662.03	21490.80
662.17	21315.26
662.31	21294.19
662.46	21551.65
662.60	20926.73
662.74	21106.95
662.88	20851.83
663.03	20776.94
663.17	20332.23
663.31	20278.40
663.45	20641.18
663.60	20793.32
663.74	20184.78
663.88	20201.16
664.02	20568.63
664.17	20528.84
664.31	20414.15
664.45	20332.23
664.59	20702.04
664.73	20362.66
664.88	20538.20
665.02	20463.30
665.16	20318.19
665.30	20135.63
665.44	20313.51
665.59	19880.51
665.73	19988.18
665.87	19414.74
666.01	19407.72
666.15	19805.61
666.29	19424.11
666.44	19529.43
666.58	19728.38
666.72	19487.30
666.86	19564.54
667.00	19857.10
667.14	19517.73
667.28	19740.08
667.43	19625.39
667.57	19332.82
667.71	19115.16
667.85	18951.32
667.99	19367.93
668.13	19260.27
668.27	19075.37
668.41	19213.46
668.56	18771.10
668.70	19042.60
668.84	19077.71
668.98	18768.76
669.12	18845.99
669.26	18838.97
669.40	18628.32
669.54	18588.53
669.68	18764.07
669.82	18696.20
669.96	18684.50
670.10	18532.36
670.25	18462.15
670.39	18300.65
670.53	17888.71
670.67	17977.65
670.81	17898.08
670.95	18087.66
671.09	17909.78
671.23	17809.14
671.37	17900.42
671.51	17547.00
671.65	17792.75
671.79	17654.66
671.93	17771.69
672.07	18059.57
672.21	17652.32
672.35	17671.04
672.49	17736.58
672.63	17865.31
672.77	17516.57
672.91	17537.63
673.05	17568.06
673.19	17408.90
673.33	17355.07
673.47	17249.75
673.61	17116.34
673.75	17415.93
673.89	17303.58
674.03	17406.56
674.17	17039.10
674.31	17151.45
674.45	17254.43
674.59	16854.20
674.73	16760.58
674.87	16919.73
675.01	16774.62
675.15	16568.65
675.29	16397.79
675.43	16751.21
675.56	16470.35
675.70	16449.28
675.84	16449.28
675.98	16292.47
676.12	16692.70
676.26	16418.86
676.40	16173.10
676.54	16353.32
676.68	16189.49
676.82	15838.41
676.96	16163.74
677.10	16114.59
677.23	16039.69
677.37	15925.00
677.51	15990.54
677.65	16152.04
677.79	15878.19
677.93	15625.42
678.07	15541.16
678.21	15187.74
678.34	15094.11
678.48	15534.14
678.62	14967.73
678.76	15070.71
678.90	14949.00
679.04	15066.03
679.18	15288.38
679.31	15232.21
679.45	14787.50
679.59	14883.47
679.73	14759.42
679.87	14850.70
680.00	14628.35
680.14	14881.13
680.28	14361.53
680.42	14441.11
680.56	14604.94
680.70	14375.57
680.83	14363.87
680.97	14286.63
681.11	14448.13
681.25	13940.23
681.39	14300.67
681.52	14277.27
681.66	14083.00
681.80	13996.40
681.94	14141.52
682.07	14104.07
682.21	14019.81
682.35	13977.68
682.49	13603.19
682.62	13701.50
682.76	13603.19
682.90	13731.92
683.04	13479.15
683.17	13233.39
683.31	13095.30
683.45	13322.33
683.59	13188.92
683.72	12835.50
683.86	12957.21
684.00	12552.29
684.13	12802.73
684.27	12870.61
684.41	12772.30
684.55	12533.57
684.68	12751.24
684.82	12751.24
684.96	12980.61
685.09	12631.87
685.23	12210.57
685.37	12369.73
685.50	12255.04
685.64	12128.66
685.78	12093.55
685.91	12336.96
686.05	12243.34
686.19	11819.71
686.32	10995.84
686.46	9558.75
686.60	8533.59
686.73	8039.74
686.87	7538.87
687.01	7555.25
687.14	7637.17
687.28	7889.95
687.42	8201.24
687.55	8720.84
687.69	9231.07
687.82	9654.71
687.96	9771.74
688.10	9778.76
688.23	9841.95
688.37	9703.86
688.50	9603.22
688.64	9357.46
688.78	9088.30
688.91	9249.80
689.05	9217.03
689.18	8943.19
689.32	9116.39
689.46	9235.75
689.59	9294.27
689.73	9291.93
689.86	9327.03
690.00	9394.91
690.13	9479.17
690.27	9348.10
690.41	9411.29
690.54	9465.13
690.68	9341.08
690.81	9525.98
690.95	9315.33
691.08	9446.40
691.22	9448.74
691.35	9376.19
691.49	9418.32
691.62	9430.02
691.76	9441.72
691.89	9673.43
692.03	9390.23
692.16	9041.49
692.30	9411.29
692.43	9181.92
692.57	9188.94
692.70	8990.00
692.84	8978.30
692.97	8746.58
693.11	8887.01
693.24	8922.12
693.38	8863.61
693.51	8753.60
693.65	8526.57
693.78	8585.08
693.92	8552.32
694.05	8491.46
694.19	8442.31
694.32	8615.51
694.45	8652.96
694.59	8397.84
694.72	8379.12
694.86	8479.76
694.99	8414.23
695.13	8322.94
695.26	8374.44
695.39	8184.85
695.53	8161.45
695.66	8278.47
695.80	8301.88
695.93	8238.69
696.07	8102.93
696.20	8276.13
696.33	8292.52
696.47	8428.27
696.60	8500.83
696.73	8472.74
696.87	8362.73
697.00	8582.74
697.14	8365.07
697.27	8351.03
697.40	7943.78
697.54	8021.02
697.67	7892.29
697.80	7819.73
697.94	7943.78
698.07	7639.51
698.21	7719.09
698.34	7585.68
698.47	7583.34
698.61	7520.14
698.74	7475.67
698.87	7218.21
699.01	7201.83
699.14	7318.86
699.27	7318.86
699.40	7454.61
699.54	7211.19
699.67	7150.34
699.80	7187.79
699.94	7258.00
700.07	7056.72
700.20	6855.43
700.34	6874.15
700.47	6722.02
700.60	6925.65
700.73	6874.15
700.87	6773.51
701.00	6609.67
701.13	6757.13
701.26	6684.57
701.40	6565.20
701.53	6497.33
701.66	6576.91
701.79	6698.61
701.93	6548.82
702.06	6480.94
702.19	6551.16
702.32	6492.65
702.46	6380.30
702.59	6293.70
702.72	6289.02
702.85	6427.11
702.99	6490.31
703.12	6389.66
703.25	6331.15
703.38	6448.18
703.51	6143.91
703.65	6218.80
703.78	6195.40
703.91	6122.84
704.04	6349.87
704.17	6092.41
704.31	6289.02
704.44	6171.99
704.57	6263.27
704.70	6317.11
704.83	6085.39
704.96	6146.25
705.10	6043.26
705.23	6005.81
>>>>>End Processed Spectral Data<<<<<
