SpectraSuite Data File
++++++++++++++++++++++++++++++++++++
Date: Mon Oct 07 14:53:25 GMT-05:00 2013
User: price-jones
Dark Spectrum Present: No
Reference Spectrum Present: No
Number of Sampled Component Spectra: 1
Spectrometers: USB2+H05261
Integration Time (usec): 100000 (USB2+H05261)
Spectra Averaged: 1 (USB2+H05261)
Boxcar Smoothing: 0 (USB2+H05261)
Correct for Electrical Dark: No (USB2+H05261)
Strobe/Lamp Enabled: No (USB2+H05261)
Correct for Detector Non-linearity: No (USB2+H05261)
Correct for Stray Light: No (USB2+H05261)
Number of Pixels in Processed Spectrum: 2048
>>>>>Begin Processed Spectral Data<<<<<
365.73	0.00
365.92	0.00
366.12	0.00
366.32	0.00
366.52	0.00
366.72	0.00
366.91	0.00
367.11	0.00
367.31	0.00
367.51	0.00
367.70	0.00
367.90	0.00
368.10	0.00
368.30	0.00
368.49	0.00
368.69	0.00
368.89	0.00
369.09	0.00
369.28	0.00
369.48	0.00
369.68	0.00
369.87	0.00
370.07	0.00
370.27	0.00
370.47	528.96
370.66	2792.26
370.86	3407.82
371.06	3676.98
371.25	3634.85
371.45	3190.15
371.65	2951.42
371.84	2768.85
372.04	2750.13
372.24	3201.85
372.44	3410.16
372.63	3323.56
372.83	3178.45
373.03	2733.75
373.22	2558.21
373.42	2675.23
373.62	3038.02
373.81	3323.56
374.01	3368.03
374.21	2911.63
374.40	2703.32
374.60	3005.25
374.79	3241.64
374.99	3695.71
375.19	4222.33
375.38	4161.47
375.58	3822.09
375.78	3981.25
375.97	3866.56
376.17	4004.66
376.37	4112.32
376.56	3985.93
376.76	4407.23
376.95	4624.90
377.15	4880.02
377.35	5123.43
377.54	5320.04
377.74	5420.68
377.93	5523.66
378.13	5369.19
378.33	5200.67
378.52	4596.81
378.72	4500.85
378.91	4540.64
379.11	4208.28
379.31	4152.11
379.50	4100.62
379.70	4505.53
379.89	4847.25
380.09	5317.70
380.28	5359.83
380.48	5348.12
380.68	5233.44
380.87	5364.51
381.07	4695.11
381.26	4348.72
381.46	4102.96
381.65	3875.93
381.85	3871.25
382.04	3660.60
382.24	3379.73
382.43	3283.77
382.63	3302.50
382.83	3236.96
383.02	3426.54
383.22	3260.37
383.41	3234.62
383.61	3454.63
383.80	4126.36
384.00	4589.79
384.19	5093.01
384.39	5301.31
384.58	5273.23
384.78	5231.10
384.97	5298.97
385.17	5015.77
385.36	4748.95
385.56	4606.17
385.75	4505.53
385.95	5097.69
386.14	5678.14
386.34	5483.88
386.53	5217.05
386.72	4959.60
386.92	5064.92
387.11	5207.69
387.31	5446.43
387.50	5472.17
387.70	5242.80
387.89	5188.97
388.09	5179.61
388.28	5308.34
388.48	5221.74
388.67	5764.74
388.86	6551.16
389.06	6710.32
389.25	7028.63
389.45	7339.92
389.64	7068.42
389.84	7016.93
390.03	6874.15
390.22	6998.20
390.42	7082.46
390.61	7545.89
390.81	8156.77
391.00	8180.17
391.19	8353.37
391.39	8039.74
391.58	7480.35
391.78	6988.84
391.97	6822.66
392.16	6399.02
392.36	5802.19
392.55	4610.86
392.75	3765.92
392.94	3075.46
393.13	3042.70
393.33	3609.11
393.52	4489.15
393.71	5460.47
393.91	6413.07
394.10	6815.64
394.29	7524.82
394.49	8037.40
394.68	8737.22
394.88	8741.90
395.07	9165.54
395.26	8781.69
395.46	8732.54
395.65	8189.53
395.84	7220.55
396.04	6099.44
396.23	4959.60
396.42	4030.40
396.62	3962.53
396.81	4683.41
397.00	5802.19
397.19	7265.02
397.39	8894.04
397.58	9937.91
397.77	10342.83
397.97	10684.55
398.16	10949.03
398.35	11421.81
398.55	11707.36
398.74	12142.70
398.93	12620.17
399.12	12374.41
399.32	12002.27
399.51	12198.87
399.70	12854.22
399.90	12533.57
400.09	12669.32
400.28	12463.35
400.47	12744.22
400.67	13408.93
400.86	13764.69
401.05	13827.88
401.24	13804.48
401.44	14127.47
401.63	14122.79
401.82	13872.36
402.01	13853.63
402.21	14420.04
402.40	14120.45
402.59	13757.67
402.78	13303.60
402.97	13043.81
403.17	13341.05
403.36	14073.64
403.55	14553.45
403.74	15145.61
403.93	14274.93
404.13	13130.41
404.32	12854.22
404.51	13291.90
404.70	14719.63
404.89	14462.17
405.09	14738.35
405.28	13973.00
405.47	14087.68
405.66	13975.34
405.85	13741.29
406.05	13057.85
406.24	13109.34
406.43	14185.99
406.62	14686.86
406.81	14787.50
407.00	13919.17
407.20	13764.69
407.39	13785.76
407.58	14305.35
407.77	15082.41
407.96	15407.75
408.15	15637.12
408.34	15719.04
408.54	16322.90
408.73	16641.21
408.92	16224.59
409.11	15882.88
409.30	15066.03
409.49	14141.52
409.68	13137.43
409.87	12863.58
410.07	13530.64
410.26	14689.20
410.45	15660.52
410.64	16290.13
410.83	16367.37
411.02	16917.39
411.21	17542.32
411.40	17558.70
411.59	17551.68
411.78	17205.28
411.98	17029.74
412.17	17228.68
412.36	16973.56
412.55	17083.57
412.74	16514.82
412.93	16233.96
413.12	16762.92
413.31	17902.76
413.50	18157.88
413.69	18405.97
413.88	17659.34
414.07	17287.20
414.26	17577.42
414.45	18305.33
414.64	17846.58
414.83	18354.48
415.02	17827.86
415.22	18033.83
415.41	18120.43
415.60	18651.73
415.79	19323.46
415.98	20128.61
416.17	20360.32
416.36	19611.35
416.55	19426.45
416.74	18747.69
416.93	18235.11
417.12	18064.25
417.31	18043.19
417.50	18635.35
417.69	19396.02
417.88	19456.87
418.07	19082.39
418.26	18967.70
418.45	18792.16
418.64	19667.52
418.83	20243.29
419.02	20154.35
419.21	19707.31
419.39	18869.40
419.58	18090.00
419.77	18003.40
419.96	19108.13
420.15	19826.68
420.34	20755.87
420.53	21139.72
420.72	21600.80
420.91	21158.44
421.10	21287.17
421.29	21193.55
421.48	20032.65
421.67	21095.25
421.86	20795.66
422.05	19393.68
422.24	17359.75
422.43	17081.23
422.61	18817.91
422.80	20372.02
422.99	20638.84
423.18	20133.29
423.37	19576.24
423.56	19391.34
423.75	19819.66
423.94	20049.03
424.13	18960.68
424.32	19374.95
424.50	19438.15
424.69	19154.94
424.88	19066.00
425.07	19115.16
425.26	18878.76
425.45	18902.17
425.64	18246.82
425.83	18602.58
426.01	19924.98
426.20	19983.49
426.39	19770.51
426.58	18534.70
426.77	17167.83
426.96	16882.28
427.15	17149.11
427.33	18567.47
427.52	19379.64
427.71	19520.07
427.90	19180.69
428.09	18829.61
428.28	18565.13
428.46	17827.86
428.65	17715.51
428.84	18024.47
429.03	18523.00
429.22	17532.95
429.40	16512.48
429.59	15208.80
429.78	13341.05
429.97	13341.05
430.16	13631.28
430.34	13497.87
430.53	13444.04
430.72	13736.60
430.91	15356.25
431.10	17708.49
431.28	21369.09
431.47	22860.01
431.66	22993.42
431.85	20961.84
432.03	19246.23
432.22	18192.98
432.41	19073.03
432.60	21144.40
432.79	22174.24
432.97	22742.99
433.16	22141.47
433.35	20238.61
433.54	18122.77
433.72	17083.57
433.91	17949.57
434.10	19749.44
434.28	21046.10
434.47	22047.85
434.66	21909.75
434.85	21156.10
435.03	21212.28
435.22	22017.42
435.41	22654.05
435.59	23229.82
435.78	23625.37
435.97	23929.64
436.16	24334.55
436.34	23934.32
436.53	23145.56
436.72	23669.84
436.90	22242.11
437.09	22258.49
437.28	21647.61
437.46	22541.70
437.65	22424.67
437.84	21099.93
438.02	19082.39
438.21	19112.81
438.40	19908.60
438.58	21900.39
438.77	22525.32
438.96	22752.35
439.14	23618.35
439.33	24215.18
439.52	24486.68
439.70	24114.54
439.89	23620.69
440.08	22909.16
440.26	22553.40
440.45	23449.83
440.63	24893.94
440.82	26113.36
441.01	26155.49
441.19	25680.36
441.38	26450.39
441.57	27035.53
441.75	27398.31
441.94	27665.13
442.12	27337.46
442.31	27864.08
442.50	27857.06
442.68	27751.73
442.87	27426.40
443.05	26441.03
443.24	26986.38
443.43	27688.54
443.61	27920.25
443.80	28819.02
443.98	27063.61
444.17	27232.13
444.35	28875.19
444.54	29085.84
444.73	28790.93
444.91	27271.92
445.10	26478.48
445.28	25516.52
445.47	24737.12
445.65	25425.24
445.84	25720.15
446.02	26616.57
446.21	26967.65
446.39	27096.38
446.58	27150.21
446.77	27798.54
446.95	28676.24
447.14	28933.70
447.32	29518.84
447.51	29074.13
447.69	27871.10
447.88	27190.00
448.06	27983.44
448.25	28496.02
448.43	28713.69
448.62	28053.66
448.80	27861.74
448.99	28243.24
449.17	28570.92
449.36	28575.60
449.54	29387.77
449.73	29996.31
449.91	30169.51
450.10	31215.72
450.28	31824.26
450.46	31000.40
450.65	31337.43
450.83	31094.02
451.02	30363.77
451.20	30354.41
451.39	30410.58
451.57	30101.63
451.76	30010.35
451.94	29893.32
452.13	29191.16
452.31	28091.11
452.49	26647.00
452.68	27023.83
452.86	27370.22
453.05	27484.91
453.23	28215.16
453.42	28769.86
453.60	29603.10
453.78	30326.32
453.97	29883.96
454.15	29647.57
454.34	28952.43
454.52	28769.86
454.70	28168.35
454.89	28945.41
455.07	28804.97
455.26	28994.56
455.44	30457.39
455.62	31152.53
455.81	31206.36
455.99	30881.03
456.17	30689.10
456.36	30705.49
456.54	31297.64
456.73	31475.52
456.91	32163.64
457.09	32053.64
457.28	32610.68
457.46	31304.67
457.64	31496.59
457.83	30003.33
458.01	29589.05
458.19	30312.28
458.38	31058.91
458.56	31578.51
458.74	31894.48
458.93	30984.01
459.11	30866.98
459.29	30768.68
459.48	31000.40
459.66	30679.74
459.84	30916.14
460.03	31541.06
460.21	31819.58
460.39	32716.01
460.57	32259.60
460.76	32608.34
460.94	33076.45
461.12	32343.86
461.31	32247.90
461.49	32283.01
461.67	32027.89
461.85	33179.43
462.04	33216.88
462.22	33556.26
462.40	33106.88
462.59	33003.89
462.77	33228.59
462.95	33088.15
463.13	32753.46
463.32	32388.33
463.50	32184.71
463.68	32147.26
463.86	32215.13
464.05	31585.53
464.23	30969.97
464.41	31314.03
464.59	30312.28
464.78	32105.13
464.96	31489.57
465.14	32072.36
465.32	32144.92
465.50	32936.02
465.69	33362.00
465.87	32563.87
466.05	32023.21
466.23	30609.53
466.41	30213.98
466.60	30642.29
466.78	30785.07
466.96	31309.35
467.14	31812.56
467.32	32432.80
467.51	32161.30
467.69	30675.06
467.87	31206.36
468.05	31950.65
468.23	32032.57
468.41	31875.76
468.60	31983.42
468.78	32486.64
468.96	31613.62
469.14	32395.35
469.32	32460.89
469.50	31309.35
469.69	31608.93
469.87	31204.02
470.05	30876.35
470.23	30855.28
470.41	30960.61
470.59	31725.96
470.77	31578.51
470.95	32442.17
471.14	32690.26
471.32	32842.40
471.50	34330.98
471.68	34824.83
471.86	34906.75
472.04	34838.87
472.22	34883.34
472.40	33673.29
472.58	33104.54
472.77	32863.46
472.95	33399.44
473.13	34466.73
473.31	33436.89
473.49	33209.86
473.67	34277.15
473.85	34649.29
474.03	35239.11
474.21	35449.75
474.39	35704.87
474.57	36088.72
474.75	35814.88
474.93	35639.34
475.12	34930.16
475.30	35105.70
475.48	35082.29
475.66	35660.40
475.84	35257.83
476.02	34698.44
476.20	34319.28
476.38	34862.28
476.56	36212.77
476.74	36495.97
476.92	37008.55
477.10	37371.33
477.28	38492.45
477.46	38244.35
477.64	39044.82
477.82	38717.14
478.00	38890.34
478.18	38246.69
478.36	38117.96
478.54	38181.16
478.72	38436.28
478.90	39491.86
479.08	40451.48
479.26	40694.89
479.44	41130.23
479.62	40091.04
479.80	40502.97
479.98	40664.47
480.16	40701.92
480.34	40730.00
480.52	40758.09
480.70	41345.56
480.88	41383.01
481.06	42195.18
481.24	42284.12
481.41	43585.46
481.59	43775.04
481.77	43505.88
481.95	43009.68
482.13	42602.43
482.31	42850.53
482.49	43885.04
482.67	43253.10
482.85	43742.27
483.03	44430.39
483.21	44346.13
483.39	44226.76
483.57	43770.36
483.74	43468.43
483.92	43756.32
484.10	43983.35
484.28	45067.02
484.46	45715.34
484.64	45656.83
484.82	44935.95
485.00	44481.88
485.18	43655.67
485.35	42422.21
485.53	39419.30
485.71	35880.41
485.89	35173.57
486.07	37118.56
486.25	40931.29
486.43	42820.10
486.61	43456.73
486.78	43435.66
486.96	43367.79
487.14	45130.21
487.32	45769.18
487.50	47318.61
487.68	47992.68
487.85	48266.53
488.03	48526.33
488.21	48135.46
488.39	47084.56
488.57	46738.16
488.75	46155.36
488.92	47473.09
489.10	49996.18
489.28	51058.79
489.46	52259.48
489.64	51887.34
489.81	52039.47
489.99	51414.55
490.17	51468.38
490.35	51828.82
490.53	51452.00
490.70	51260.07
490.88	50684.30
491.06	51873.29
491.24	51835.84
491.41	50656.21
491.59	49205.08
491.77	48437.39
491.95	49642.76
492.13	50981.55
492.30	52191.61
492.48	53081.01
492.66	53844.02
492.84	53354.85
493.01	53153.57
493.19	52589.50
493.37	52439.70
493.54	52114.37
493.72	52538.01
493.90	53719.98
494.08	54490.01
494.25	55110.25
494.43	55276.43
494.61	55529.21
494.79	55501.12
494.96	55189.83
495.14	54557.89
495.32	53741.04
495.49	52879.72
495.67	54230.21
495.85	55402.82
496.02	55793.69
496.20	55735.18
496.38	55154.72
496.55	55295.16
496.73	55524.53
496.91	55821.78
497.09	56317.97
497.26	56643.30
497.44	55966.89
497.62	55571.34
497.79	54695.98
497.97	53322.08
498.14	53560.82
498.32	54784.92
498.50	55718.79
498.67	56072.21
498.85	55805.39
499.03	56294.56
499.20	56409.25
499.38	56479.47
499.56	56116.68
499.73	55924.76
499.91	55283.45
500.08	54934.71
500.26	54237.23
500.44	54637.47
500.61	55634.53
500.79	55145.36
500.97	54962.80
501.14	54698.32
501.32	54309.79
501.49	54513.42
501.67	54960.46
501.84	55409.84
502.02	55496.44
502.20	55856.88
502.37	56123.71
502.55	55908.38
502.72	56694.80
502.90	57022.47
503.07	56942.89
503.25	56484.15
503.43	55444.95
503.60	54890.24
503.78	54291.07
503.95	54639.81
504.13	55971.57
504.30	57073.96
504.48	56823.53
504.65	56374.14
504.83	56568.41
505.01	57146.52
505.18	57544.41
505.36	57925.92
505.53	58005.50
505.71	58136.57
505.88	58211.46
506.06	57808.89
506.23	57368.87
506.41	57214.40
506.58	57097.37
506.76	57226.10
506.93	56992.04
507.11	56821.19
507.28	56879.70
507.46	56334.35
507.63	56037.11
507.81	55739.86
507.98	55812.41
508.16	56844.59
508.33	57270.57
508.50	57691.86
508.68	57883.79
508.85	58394.03
509.03	58232.53
509.20	58164.65
509.38	57649.74
509.55	56917.15
509.73	56877.36
509.90	57233.12
510.08	57794.85
510.25	57705.91
510.42	57401.64
510.60	57366.53
510.77	57471.85
510.95	57858.04
511.12	58372.96
511.30	58328.49
511.47	58810.64
511.64	58681.91
511.82	58379.98
511.99	57762.08
512.17	57233.12
512.34	56825.87
512.51	56973.32
512.69	57137.16
512.86	57237.80
513.04	57584.20
513.21	57661.44
513.38	57403.98
513.56	56769.69
513.73	56086.26
513.90	56568.41
514.08	56537.98
514.25	56963.96
514.43	57085.67
514.60	57153.54
514.77	57303.34
514.95	57247.16
515.12	57326.74
515.29	57614.63
515.47	58028.90
515.64	57986.77
515.81	58024.22
515.99	57310.36
516.16	56095.62
516.33	53380.60
516.51	51957.55
516.68	50925.38
516.85	50518.12
517.03	51288.16
517.20	53783.17
517.37	56495.85
517.54	57731.65
517.72	56947.57
517.89	54321.49
518.06	52198.63
518.24	52271.18
518.41	54557.89
518.58	55873.27
518.75	56093.28
518.93	56348.40
519.10	56299.25
519.27	56722.88
519.45	56989.70
519.62	57715.27
519.79	58089.76
519.96	57673.14
520.14	57317.38
520.31	56456.06
520.48	56362.44
520.65	56879.70
520.83	57598.24
521.00	58220.83
521.17	57914.22
521.34	57425.04
521.52	57771.44
521.69	58274.66
521.86	58667.87
522.03	58539.14
522.20	57066.94
522.38	56376.48
522.55	56006.68
522.72	56725.22
522.89	57055.24
523.07	57303.34
523.24	57499.94
523.41	58216.14
523.58	58609.35
523.75	58934.69
523.92	58946.39
524.10	58801.28
524.27	58791.92
524.44	58508.71
524.61	58471.26
524.78	58162.31
524.96	58286.36
525.13	58307.43
525.30	58440.84
525.47	58780.21
525.64	58670.21
525.81	58129.54
525.98	56636.28
526.16	55238.98
526.33	54497.03
526.50	54110.85
526.67	53616.99
526.84	54302.77
527.01	55634.53
527.18	56172.86
527.36	57373.55
527.53	58003.16
527.70	58202.10
527.87	57783.15
528.04	57411.00
528.21	57682.50
528.38	58487.65
528.55	58855.11
528.72	59196.83
528.89	59360.67
529.07	59068.10
529.24	58429.13
529.41	57815.91
529.58	57207.37
529.75	57340.78
529.92	57921.24
530.09	58232.53
530.26	58747.45
530.43	58890.22
530.60	58880.86
530.77	59159.38
530.94	59428.54
531.11	58759.15
531.28	58475.94
531.46	57935.28
531.63	58363.60
531.80	58223.17
531.97	57759.74
532.14	57272.91
532.31	56083.92
532.48	55512.83
532.65	55590.06
532.82	56378.82
532.99	57478.88
533.16	57724.63
533.33	58508.71
533.50	58181.04
533.67	57469.51
533.84	57279.93
534.01	57446.11
534.18	57638.03
534.35	57794.85
534.52	57467.17
534.69	57797.19
534.86	58150.61
535.03	58447.86
535.20	58908.94
535.37	59248.32
535.54	59192.15
535.71	58951.07
535.88	58532.12
536.05	57968.05
536.22	57523.35
536.38	57357.17
536.55	56823.53
536.72	56303.93
536.89	56416.27
537.06	56963.96
537.23	57921.24
537.40	58138.91
537.57	58209.12
537.74	57942.30
537.91	58056.99
538.08	57684.84
538.25	58007.84
538.42	57883.79
538.59	58019.54
538.75	57361.85
538.92	57013.11
539.09	57130.14
539.26	56755.65
539.43	56505.21
539.60	56589.47
539.77	56659.69
539.94	56676.07
540.11	56126.05
540.28	55374.73
540.44	55421.55
540.61	55739.86
540.78	55849.86
540.95	56470.11
541.12	56814.16
541.29	57034.17
541.46	57448.45
541.62	57485.90
541.79	57345.47
541.96	56713.52
542.13	56472.45
542.30	56823.53
542.47	57102.05
542.63	56886.72
542.80	56591.81
542.97	56800.12
543.14	56406.91
543.31	56809.48
543.48	57127.80
543.64	57769.10
543.81	58166.99
543.98	58024.22
544.15	57324.40
544.32	56683.09
544.48	56882.04
544.65	57315.04
544.82	57808.89
544.99	57495.26
545.16	57193.33
545.32	56809.48
545.49	57687.18
545.66	57946.98
545.83	57338.44
546.00	57315.04
546.16	56786.08
546.33	56732.25
546.50	56898.42
546.67	57333.76
546.83	56853.95
547.00	57202.69
547.17	56097.96
547.34	55667.30
547.50	55618.15
547.67	56299.25
547.84	56294.56
548.00	56786.08
548.17	57015.45
548.34	56837.57
548.51	57003.75
548.67	57041.20
548.84	57092.69
549.01	57048.22
549.18	56729.90
549.34	56748.63
549.51	56655.01
549.68	56573.09
549.84	56605.86
550.01	56493.51
550.18	56287.54
550.34	56257.12
550.51	56406.91
550.68	56626.92
550.84	55929.44
551.01	56095.62
551.18	56104.98
551.34	56254.78
551.51	56587.13
551.68	56987.36
551.84	56814.16
552.01	56669.05
552.18	56435.00
552.34	55938.80
552.51	55484.74
552.68	55297.50
552.84	55756.24
553.01	56011.36
553.18	56217.33
553.34	56161.15
553.51	56360.10
553.67	56348.40
553.84	56786.08
554.01	56765.01
554.17	56371.80
554.34	56254.78
554.51	56818.84
554.67	56940.55
554.84	56591.81
555.00	56186.90
555.17	56114.34
555.33	55955.19
555.50	56025.40
555.67	56062.85
555.83	55906.04
556.00	55503.46
556.16	55807.73
556.33	55201.53
556.50	55014.29
556.66	55164.09
556.83	54487.67
556.99	55121.96
557.16	54927.69
557.32	55267.07
557.49	55648.58
557.65	55419.20
557.82	55447.29
557.98	55056.42
558.15	54915.99
558.32	54068.72
558.48	53083.35
558.65	53275.27
558.81	53790.19
558.98	54356.60
559.14	54192.76
559.31	54468.95
559.47	54405.75
559.64	54012.54
559.80	53734.02
559.97	53780.83
560.13	54401.07
560.30	55309.20
560.46	55348.99
560.63	55702.41
560.79	56016.04
560.96	55571.34
561.12	54396.39
561.29	53460.18
561.45	53567.84
561.61	54134.25
561.78	54485.33
561.94	54351.92
562.11	54604.70
562.27	54227.87
562.44	54497.03
562.60	54817.69
562.77	55187.49
562.93	54855.14
563.10	55009.61
563.26	54059.35
563.42	54321.49
563.59	54124.89
563.75	54071.06
563.92	54218.51
564.08	53918.92
564.24	54347.24
564.41	54600.02
564.57	54358.94
564.74	54085.10
564.90	54150.63
565.07	53759.76
565.23	53621.67
565.39	53064.63
565.56	52753.33
565.72	52374.17
565.88	52772.06
566.05	52832.91
566.21	53214.42
566.38	53228.46
566.54	53546.78
566.70	53684.87
566.87	54092.12
567.03	53792.53
567.19	54108.50
567.36	53738.70
567.52	53745.72
567.68	53336.13
567.85	52786.10
568.01	52547.37
568.17	51962.23
568.34	52259.48
568.50	52016.07
568.66	52119.05
568.83	52540.35
568.99	52729.93
569.15	52790.78
569.32	52783.76
569.48	52097.98
569.64	52009.04
569.81	51760.95
569.97	51999.68
570.13	51566.68
570.30	51377.10
570.46	50672.60
570.62	50527.48
570.78	50155.34
570.95	50429.18
571.11	51194.54
571.27	51423.91
571.43	52020.75
571.60	52175.22
571.76	52294.59
571.92	52617.58
572.09	52776.74
572.25	52626.95
572.41	52570.77
572.57	52474.81
572.74	52376.51
572.90	51807.76
573.06	52172.88
573.22	51980.96
573.38	52112.03
573.55	52107.35
573.71	52280.55
573.87	52044.15
574.03	51770.31
574.20	51634.56
574.36	51356.03
574.52	51311.56
574.68	50796.65
574.84	50649.19
575.01	50225.56
575.17	49942.35
575.33	50691.32
575.49	50581.32
575.65	50876.22
575.82	50803.67
575.98	50653.87
576.14	50604.72
576.30	51147.73
576.46	50735.79
576.62	50798.99
576.79	50993.25
576.95	50623.45
577.11	50834.10
577.27	50806.01
577.43	50763.88
577.59	50255.98
577.75	50253.64
577.92	49158.27
578.08	48999.12
578.24	48708.89
578.40	49427.43
578.56	49684.89
578.72	49748.09
578.88	49923.63
579.04	50181.09
579.21	50129.59
579.37	50375.35
579.53	50649.19
579.69	50419.82
579.85	50831.75
580.01	50232.58
580.17	49729.36
580.33	49516.37
580.49	49712.98
580.65	50040.65
580.82	50342.58
580.98	50305.13
581.14	50150.66
581.30	50206.83
581.46	50181.09
581.62	50426.84
581.78	50094.49
581.94	50466.63
582.10	50370.67
582.26	50464.29
582.42	50206.83
582.58	50567.27
582.74	50586.00
582.90	50190.45
583.06	50319.18
583.22	49907.24
583.38	49806.60
583.54	49851.07
583.70	49734.04
583.86	50145.98
584.02	49951.71
584.18	49617.02
584.34	49860.43
584.50	49771.49
584.66	49698.94
584.82	49436.80
584.98	48989.75
585.14	48900.81
585.30	48123.75
585.46	47730.54
585.62	47320.95
585.78	48224.40
585.94	48032.47
586.10	48582.50
586.26	48444.41
586.42	48734.63
586.58	48905.49
586.74	48800.17
586.90	48617.61
587.06	48526.33
587.22	48701.87
587.38	48198.65
587.54	48200.99
587.70	47648.63
587.86	47143.07
588.02	46904.34
588.18	47065.83
588.34	45247.24
588.49	43669.72
588.65	41378.33
588.81	40584.89
588.97	41504.72
589.13	41237.90
589.29	41153.64
589.45	41764.52
589.61	43707.16
589.77	44596.57
589.93	45591.30
590.08	46307.50
590.24	46754.54
590.40	46356.65
590.56	46803.69
590.72	46256.01
590.88	46061.74
591.04	45481.29
591.20	45621.72
591.35	45757.47
591.51	45930.67
591.67	45698.96
591.83	45736.41
591.99	45996.21
592.15	45404.05
592.31	46543.89
592.46	46092.17
592.62	45708.32
592.78	45574.91
592.94	45261.28
593.10	45581.93
593.26	46007.91
593.41	45975.14
593.57	46202.18
593.73	45469.59
593.89	44765.09
594.05	44870.41
594.20	44369.54
594.36	44245.49
594.52	43934.20
594.68	43917.81
594.84	44713.59
594.99	45003.82
595.15	45471.93
595.31	45361.92
595.47	45062.33
595.62	45387.67
595.78	45254.26
595.94	45635.77
596.10	45436.82
596.25	44982.76
596.41	44772.11
596.57	44531.03
596.73	45198.09
596.88	45322.13
597.04	44992.12
597.20	44671.46
597.36	44360.17
597.51	44816.58
597.67	44615.29
597.83	44364.85
597.99	44505.29
598.14	43512.90
598.30	43522.26
598.46	43641.63
598.61	43920.15
598.77	43838.23
598.93	44154.21
599.09	44404.64
599.24	44531.03
599.40	44086.33
599.56	44154.21
599.71	44304.00
599.87	44563.80
600.03	44357.83
600.18	44055.90
600.34	43313.95
600.50	43084.58
600.65	43044.79
600.81	43505.88
600.97	43229.69
601.12	43086.92
601.28	43648.65
601.44	43246.08
601.59	43229.69
601.75	42403.49
601.91	42337.95
602.06	42429.23
602.22	42724.14
602.37	42316.89
602.53	43430.98
602.69	43068.20
602.84	43405.23
603.00	43569.07
603.16	43430.98
603.31	44105.06
603.47	43995.05
603.62	43402.89
603.78	43248.42
603.94	43110.33
604.09	42799.04
604.25	42859.89
604.40	43007.34
604.56	42679.67
604.71	43093.94
604.87	42974.58
605.03	42777.97
605.18	42693.71
605.34	42609.45
605.49	42536.90
605.65	42712.44
605.80	42553.28
605.96	42190.50
606.12	42115.60
606.27	41654.51
606.43	41902.61
606.58	42677.33
606.74	42092.19
606.89	42387.10
607.05	42658.60
607.20	42087.51
607.36	41460.25
607.51	41755.16
607.67	41474.29
607.82	41743.45
607.98	41118.53
608.13	41237.90
608.29	41347.90
608.44	41036.61
608.60	40673.83
608.75	40858.73
608.91	40900.86
609.06	41088.10
609.22	40720.64
609.37	40797.88
609.53	40765.11
609.68	40177.64
609.84	39627.61
609.99	39484.84
610.15	39522.29
610.30	40025.50
610.46	40378.92
610.61	40568.51
610.76	40760.43
610.92	41062.36
611.07	41216.83
611.23	41151.30
611.38	41139.60
611.54	40547.44
611.69	39842.94
611.84	39033.11
612.00	39250.78
612.15	39143.12
612.31	39529.31
612.46	39241.42
612.62	39566.76
612.77	39063.54
612.92	39674.42
613.08	39100.99
613.23	38675.01
613.39	37366.65
613.54	37226.22
613.69	37944.76
613.85	37874.55
614.00	38141.37
614.15	38579.05
614.31	38682.03
614.46	38277.12
614.62	38335.63
614.77	38581.39
614.92	38693.74
615.08	38588.41
615.23	38396.49
615.38	38234.99
615.54	37228.56
615.69	36692.58
615.84	35903.82
616.00	35587.85
616.15	35817.22
616.30	36247.88
616.46	36535.76
616.61	35976.37
616.76	36790.88
616.92	37017.91
617.07	36821.31
617.22	37048.34
617.37	37385.38
617.53	37542.19
617.68	37340.91
617.83	37347.93
617.99	37881.57
618.14	37532.83
618.29	37275.37
618.45	36975.78
618.60	36563.85
618.75	36144.89
618.90	36133.19
619.06	36531.08
619.21	37127.92
619.36	37397.08
619.51	36919.61
619.67	37146.64
619.82	36589.59
619.97	36580.23
620.12	36556.83
620.28	36737.05
620.43	36711.30
620.58	37298.78
620.73	36816.63
620.89	36355.54
621.04	36196.38
621.19	35688.49
621.34	35229.74
621.49	35108.04
621.65	35260.17
621.80	35379.54
621.95	35349.11
622.10	35625.29
622.25	35728.28
622.41	35115.06
622.56	35096.33
622.71	34700.78
622.86	34389.49
623.01	34646.95
623.16	35119.74
623.32	34803.77
623.47	34719.51
623.62	35072.93
623.77	34501.84
623.92	34288.85
624.07	33701.37
624.23	33106.88
624.38	33450.94
624.53	34197.57
624.68	33853.51
624.83	33326.89
624.98	33301.14
625.13	33280.08
625.29	33139.65
625.44	32807.29
625.59	33216.88
625.74	33362.00
625.89	32753.46
626.04	33216.88
626.19	33127.94
626.34	33766.91
626.49	33296.46
626.65	33338.59
626.80	33582.01
626.95	33102.20
627.10	33088.15
627.25	32304.07
627.40	30962.95
627.55	30579.10
627.70	30866.98
627.85	30948.90
628.00	30958.27
628.15	31395.95
628.30	31927.25
628.45	32247.90
628.60	31583.19
628.76	32063.00
628.91	32018.53
629.06	32048.96
629.21	31470.84
629.36	31328.07
629.51	31346.79
629.66	30705.49
629.81	30632.93
629.96	30527.61
630.11	30595.48
630.26	31592.55
630.41	31363.18
630.56	30838.90
630.71	31342.11
630.86	31014.44
631.01	31185.30
631.16	30728.89
631.31	30043.12
631.46	30326.32
631.61	30253.76
631.76	30541.65
631.91	30405.90
632.06	30890.39
632.21	30920.82
632.36	31133.81
632.51	31065.93
632.66	31311.69
632.81	30841.24
632.96	31405.31
633.10	30848.26
633.25	30316.96
633.40	29977.58
633.55	30396.54
633.70	30106.31
633.85	30202.27
634.00	30160.14
634.15	30242.06
634.30	30139.08
634.45	30157.80
634.60	30235.04
634.75	30511.22
634.90	30228.02
635.05	30597.82
635.19	29736.51
635.34	30216.32
635.49	29890.98
635.64	29951.84
635.79	29228.61
635.94	29322.23
636.09	29600.76
636.24	29731.83
636.39	29727.14
636.53	29947.15
636.68	29816.08
636.83	29895.66
636.98	30307.60
637.13	30068.86
637.28	30281.85
637.43	29942.47
637.57	30136.74
637.72	30127.38
637.87	29612.46
638.02	29626.50
638.17	29324.57
638.32	29640.54
638.46	29486.07
638.61	29474.37
638.76	29144.35
638.91	28786.25
639.06	28687.95
639.20	28332.18
639.35	28870.51
639.50	28037.28
639.65	28416.44
639.80	28334.53
639.94	28259.63
640.09	28926.68
640.24	28451.55
640.39	28568.58
640.54	27871.10
640.68	27903.87
640.83	27943.66
640.98	27810.25
641.13	27910.89
641.27	28016.21
641.42	27924.93
641.57	28009.19
641.72	27391.29
641.86	27655.77
642.01	27826.63
642.16	27990.47
642.31	27733.01
642.45	28673.90
642.60	28142.60
642.75	27721.30
642.90	27714.28
643.04	27398.31
643.19	27461.51
643.34	27934.29
643.48	27021.48
643.63	27206.39
643.78	27330.44
643.93	27367.88
644.07	27924.93
644.22	27529.38
644.37	27538.74
644.51	27494.27
644.66	26946.59
644.81	27325.75
644.95	27016.80
645.10	26939.57
645.25	26707.85
645.39	26836.58
645.54	26536.99
645.69	26288.90
645.83	26174.21
645.98	25631.21
646.13	26225.70
646.27	25799.73
646.42	25900.37
646.57	25806.75
646.71	25823.13
646.86	25940.16
647.00	25338.64
647.15	25692.06
647.30	25200.55
647.44	25612.48
647.59	25626.53
647.74	25502.48
647.88	25125.65
648.03	24849.47
648.17	25111.61
648.32	25275.45
648.47	25497.80
648.61	25591.42
648.76	25238.00
648.90	24671.59
649.05	24032.62
649.20	23557.49
649.34	23328.12
649.49	23302.37
649.63	24081.77
649.78	24381.36
649.92	24650.52
650.07	25479.07
650.21	25071.82
650.36	25041.39
650.51	25331.62
650.65	25443.96
650.80	25535.24
650.94	25151.40
651.09	24716.06
651.23	24081.77
651.38	23658.14
651.52	23978.79
651.67	24133.26
651.81	24348.59
651.96	24355.61
652.10	24592.01
652.25	24767.55
652.39	24687.97
652.54	24737.12
652.68	24837.76
652.83	24428.17
652.97	24294.76
653.12	24428.17
653.26	24547.54
653.41	24559.24
653.55	24594.35
653.70	24404.77
653.84	24044.32
653.99	24023.26
654.13	23726.01
654.27	23403.02
654.42	23131.51
654.56	23314.08
654.71	23417.06
654.85	23501.32
655.00	22780.43
655.14	22752.35
655.29	22022.10
655.43	22153.17
655.57	21003.97
655.72	19728.38
655.86	18036.17
656.01	17076.55
656.15	17390.18
656.30	18274.90
656.44	19543.47
656.58	20577.99
656.73	21233.34
656.87	21434.63
657.01	21706.13
657.16	22120.40
657.30	22012.74
657.45	22656.39
657.59	22518.29
657.73	22745.33
657.88	22852.99
658.02	22616.60
658.16	22525.32
658.31	22541.70
658.45	22801.50
658.60	22307.65
658.74	22424.67
658.88	21986.99
659.03	22050.19
659.17	22176.58
659.31	22045.51
659.46	22178.92
659.60	22277.22
659.74	22572.13
659.89	22347.44
660.03	22817.88
660.17	22731.28
660.32	22693.83
660.46	22253.81
660.60	22239.77
660.74	22129.77
660.89	22288.92
661.03	22078.27
661.17	22270.20
661.32	22218.71
661.46	22270.20
661.60	22253.81
661.74	22134.45
661.89	22396.59
662.03	22153.17
662.17	21720.17
662.31	22036.14
662.46	22242.11
662.60	21898.05
662.74	21692.08
662.88	21198.23
663.03	21385.47
663.17	21355.05
663.31	21209.93
663.45	21053.12
663.60	21273.13
663.74	20886.94
663.88	21165.46
664.02	20772.25
664.17	20952.48
664.31	20463.30
664.45	21179.51
664.59	21174.83
664.73	21069.50
664.88	21247.38
665.02	20966.52
665.16	21027.37
665.30	21132.70
665.44	20950.14
665.59	20912.69
665.73	20692.68
665.87	20243.29
666.01	20161.37
666.15	20299.47
666.29	20182.44
666.44	20280.74
666.58	20287.76
666.72	20215.21
666.86	20467.98
667.00	20507.77
667.14	20285.42
667.28	20042.01
667.43	20147.33
667.57	19967.11
667.71	19992.86
667.85	19920.30
667.99	19917.96
668.13	19887.53
668.27	19894.55
668.41	20070.09
668.56	19676.88
668.70	19845.40
668.84	19793.91
668.98	19616.03
669.12	19829.02
669.26	19527.09
669.40	19482.62
669.54	19407.72
669.68	19524.75
669.82	19384.32
669.96	19377.30
670.10	19190.05
670.25	19136.22
670.39	18743.01
670.53	18771.10
670.67	18663.43
670.81	18845.99
670.95	18712.58
671.09	18518.32
671.23	18597.90
671.37	18555.77
671.51	18225.75
671.65	18520.66
671.79	18530.02
671.93	18221.07
672.07	18448.10
672.21	18539.38
672.35	18490.23
672.49	18045.53
672.63	18523.00
672.77	18015.10
672.91	17921.48
673.05	18090.00
673.19	18017.44
673.33	17984.68
673.47	18146.17
673.61	17937.87
673.75	17991.70
673.89	17961.27
674.03	17841.90
674.17	17947.23
674.31	17834.88
674.45	17694.45
674.59	17612.53
674.73	17282.52
674.87	17528.27
675.01	17380.82
675.15	17425.29
675.29	17256.77
675.43	17074.21
675.56	17041.44
675.70	17195.92
675.84	17106.98
675.98	16901.01
676.12	16842.50
676.26	16994.63
676.40	16816.75
676.54	16748.87
676.68	16643.55
676.82	16362.69
676.96	16732.49
677.10	16475.03
677.23	16416.52
677.37	16758.24
677.51	16386.09
677.65	16573.33
677.79	15815.00
677.93	16121.61
678.07	15927.35
678.21	15857.13
678.34	15627.76
678.48	15374.98
678.62	15719.04
678.76	15592.65
678.90	15609.03
679.04	15618.39
679.18	15517.75
679.31	15669.89
679.45	15442.85
679.59	15363.28
679.73	15634.78
679.87	15321.15
680.00	15243.91
680.14	14998.15
680.28	14850.70
680.42	14925.60
680.56	14986.45
680.70	14778.14
680.83	14881.13
680.97	14675.16
681.11	14597.92
681.25	14663.46
681.39	14745.38
681.52	14569.83
681.66	14860.06
681.80	14427.06
681.94	14544.09
682.07	14530.05
682.21	14466.85
682.35	14136.84
682.49	14141.52
682.62	13942.57
682.76	14155.56
682.90	14164.92
683.04	14260.88
683.17	14015.13
683.31	13867.67
683.45	13685.11
683.59	13748.31
683.72	13212.32
683.86	13078.91
684.00	13167.85
684.13	13252.11
684.27	13308.29
684.41	13123.38
684.55	13095.30
684.68	13371.48
684.82	13205.30
684.96	13013.38
685.09	12903.37
685.23	12636.55
685.37	12896.35
685.50	12821.45
685.64	12844.86
685.78	12547.61
685.91	12596.76
686.05	12535.91
686.19	12224.62
686.32	11522.46
686.46	10303.04
686.60	8968.93
686.73	8411.89
686.87	7885.26
687.01	7831.43
687.14	7985.91
687.28	8266.77
687.42	8734.88
687.55	8901.06
687.69	9521.30
687.82	9811.53
687.96	10237.50
688.10	10303.04
688.23	10019.83
688.37	9898.13
688.50	9767.06
688.64	9867.70
688.78	9521.30
688.91	9324.69
689.05	9547.05
689.18	9401.93
689.32	9355.12
689.46	9277.88
689.59	9675.77
689.73	9701.52
689.86	9320.01
690.00	9647.69
690.13	9720.24
690.27	9568.11
690.41	9848.97
690.54	9600.88
690.68	9692.16
690.81	9680.46
690.95	9881.74
691.08	9804.50
691.22	9839.61
691.35	9720.24
691.49	9844.29
691.62	9816.21
691.76	9818.55
691.89	9928.55
692.03	9806.84
692.16	9643.01
692.30	9453.42
692.43	9434.70
692.57	9495.55
692.70	9371.50
692.84	9177.24
692.97	8957.23
693.11	9394.91
693.24	9123.41
693.38	9057.87
693.51	9301.29
693.65	9137.45
693.78	8746.58
693.92	8753.60
694.05	8772.33
694.19	8727.86
694.32	8720.84
694.45	8908.08
694.59	8681.05
694.72	8695.09
694.86	8814.46
694.99	8823.82
695.13	8500.83
695.26	8582.74
695.39	8411.89
695.53	8463.38
695.66	8421.25
695.80	8571.04
695.93	8491.46
696.07	8571.04
696.20	8631.90
696.33	8603.81
696.47	8802.75
696.60	8800.41
696.73	8713.81
696.87	8711.47
697.00	8751.26
697.14	8720.84
697.27	8610.83
697.40	8439.97
697.54	8109.96
697.67	8039.74
697.80	7896.97
697.94	8131.02
698.07	8002.29
698.21	7810.37
698.34	7908.67
698.47	7609.08
698.61	7599.72
698.74	7599.72
698.87	7782.28
699.01	7559.93
699.14	7595.04
699.27	7702.70
699.40	7747.17
699.54	7513.12
699.67	7480.35
699.80	7307.15
699.94	7283.75
700.07	7335.24
700.20	7229.91
700.34	7012.24
700.47	6967.77
700.60	7199.49
700.73	7016.93
700.87	7080.12
701.00	7073.10
701.13	6960.75
701.26	6827.34
701.40	6656.48
701.53	6754.79
701.66	6930.33
701.79	7016.93
701.93	6846.07
702.06	6806.28
702.19	6623.72
702.32	6574.56
702.46	6626.06
702.59	6544.14
702.72	6541.80
702.85	6672.87
702.99	6707.98
703.12	6642.44
703.25	6579.25
703.38	6647.12
703.51	6499.67
703.65	6392.00
703.78	6298.38
703.91	6403.71
704.04	6469.24
704.17	6384.98
704.31	6328.81
704.44	6319.45
704.57	6396.68
704.70	6476.26
704.83	6452.86
704.96	6267.95
705.10	6244.55
705.23	6125.18
>>>>>End Processed Spectral Data<<<<<
