SpectraSuite Data File
++++++++++++++++++++++++++++++++++++
Date: Mon Oct 07 14:53:27 GMT-05:00 2013
User: price-jones
Dark Spectrum Present: No
Reference Spectrum Present: No
Number of Sampled Component Spectra: 1
Spectrometers: USB2+H05261
Integration Time (usec): 100000 (USB2+H05261)
Spectra Averaged: 1 (USB2+H05261)
Boxcar Smoothing: 0 (USB2+H05261)
Correct for Electrical Dark: No (USB2+H05261)
Strobe/Lamp Enabled: No (USB2+H05261)
Correct for Detector Non-linearity: No (USB2+H05261)
Correct for Stray Light: No (USB2+H05261)
Number of Pixels in Processed Spectrum: 2048
>>>>>Begin Processed Spectral Data<<<<<
365.73	0.00
365.92	0.00
366.12	0.00
366.32	0.00
366.52	0.00
366.72	0.00
366.91	0.00
367.11	0.00
367.31	0.00
367.51	0.00
367.70	0.00
367.90	0.00
368.10	0.00
368.30	0.00
368.49	0.00
368.69	0.00
368.89	0.00
369.09	0.00
369.28	0.00
369.48	0.00
369.68	0.00
369.87	0.00
370.07	0.00
370.27	0.00
370.47	779.40
370.66	3929.76
370.86	4587.45
371.06	5083.64
371.25	5111.73
371.45	4559.36
371.65	4051.47
371.84	3829.12
372.04	3960.19
372.24	4440.00
372.44	4578.09
372.63	4489.15
372.83	4262.12
373.03	3742.52
373.22	3421.86
373.42	3543.57
373.62	4058.49
373.81	4655.33
374.01	4603.83
374.21	4051.47
374.40	3812.73
374.60	3967.21
374.79	4465.74
374.99	5256.84
375.19	5535.37
375.38	5666.44
375.58	5383.23
375.78	5130.45
375.97	5210.03
376.17	5404.30
376.37	5298.97
376.56	5507.28
376.76	5797.51
376.95	6071.35
377.15	6604.99
377.35	7030.97
377.54	7236.94
377.74	7309.49
377.93	7494.40
378.13	7185.44
378.33	6712.66
378.52	6375.62
378.72	6090.07
378.91	5783.46
379.11	5703.89
379.31	5509.62
379.50	5706.23
379.70	6036.24
379.89	6485.62
380.09	6925.65
380.28	7405.46
380.48	7323.54
380.68	7201.83
380.87	6958.41
381.07	6480.94
381.26	6087.73
381.46	5617.29
381.65	5397.28
381.85	5408.98
382.04	4887.04
382.24	4662.35
382.43	4458.72
382.63	4456.38
382.83	4418.93
383.02	4320.63
383.22	4334.67
383.41	4470.42
383.61	4805.12
383.80	5277.91
384.00	6033.90
384.19	6949.05
384.39	7150.34
384.58	7063.74
384.78	6956.07
384.97	6949.05
385.17	6394.34
385.36	6389.66
385.56	5877.09
385.75	6134.54
385.95	6736.06
386.14	7288.43
386.34	7370.35
386.53	7035.65
386.72	6492.65
386.92	6583.93
387.11	6984.16
387.31	7260.34
387.50	7232.26
387.70	6848.41
387.89	6979.48
388.09	7070.76
388.28	6981.82
388.48	7124.59
388.67	7620.78
388.86	8353.37
389.06	8926.80
389.25	9507.26
389.45	9568.11
389.64	9261.50
389.84	9434.70
390.03	9181.92
390.22	9121.07
390.42	9586.83
390.61	10186.01
390.81	10817.96
391.00	11094.14
391.19	10939.66
391.39	10487.94
391.58	9860.68
391.78	9390.23
391.97	9109.36
392.16	8608.49
392.36	7716.75
392.55	6179.01
392.75	4800.44
392.94	3976.57
393.13	4007.00
393.33	4755.97
393.52	6050.28
393.71	7503.76
393.91	8362.73
394.10	9013.40
394.29	9949.62
394.49	10693.91
394.68	11595.01
394.88	11375.00
395.07	11922.69
395.26	11852.47
395.46	11419.47
395.65	10640.08
395.84	9329.38
396.04	7920.37
396.23	6361.58
396.42	5298.97
396.62	5308.34
396.81	6015.18
397.00	7775.26
397.19	10164.95
397.39	11698.00
397.58	13083.59
397.77	14274.93
397.97	14633.03
398.16	14590.90
398.35	15070.71
398.55	15370.30
398.74	15939.05
398.93	16376.73
399.12	16002.24
399.32	15590.31
399.51	15751.81
399.70	17064.85
399.90	16809.73
400.09	16919.73
400.28	16966.54
400.47	17011.01
400.67	17554.02
400.86	18075.96
401.05	18040.85
401.24	18284.26
401.44	18401.29
401.63	18249.16
401.82	18548.75
402.01	18377.89
402.21	18740.67
402.40	18651.73
402.59	18181.28
402.78	17432.31
402.97	16985.27
403.17	17729.56
403.36	18838.97
403.55	19524.75
403.74	19861.79
403.93	18796.84
404.13	17287.20
404.32	17261.45
404.51	17664.02
404.70	19304.74
404.89	18951.32
405.09	18824.93
405.28	18272.56
405.47	18277.24
405.66	18253.84
405.85	17869.99
406.05	17186.55
406.24	17621.89
406.43	18705.56
406.62	18953.66
406.81	19154.94
407.00	18281.92
407.20	17715.51
407.39	18071.28
407.58	18890.46
407.77	19335.17
407.96	20231.59
408.15	20339.26
408.34	20589.69
408.54	21343.35
408.73	22050.19
408.92	21235.68
409.11	20795.66
409.30	19726.04
409.49	18443.42
409.68	17385.50
409.87	16634.19
410.07	17987.02
410.26	19302.40
410.45	20393.09
410.64	20931.41
410.83	21935.50
411.02	21937.84
411.21	22902.14
411.40	22970.02
411.59	23175.98
411.78	22862.35
411.98	22504.25
412.17	22473.82
412.36	22183.60
412.55	22225.73
412.74	22111.04
412.93	21284.83
413.12	21727.19
413.31	23693.24
413.50	23674.52
413.69	24109.86
413.88	23452.17
414.07	22438.72
414.26	23129.17
414.45	23562.17
414.64	23985.81
414.83	24116.88
415.02	23271.95
415.22	23522.38
415.41	23782.18
415.60	24842.45
415.79	25790.36
415.98	26106.34
416.17	26635.30
416.36	25270.76
416.55	25092.88
416.74	24538.18
416.93	23428.76
417.12	23531.75
417.31	23962.40
417.50	24463.28
417.69	25275.45
417.88	25153.74
418.07	24844.79
418.26	24081.77
418.45	24617.75
418.64	25238.00
418.83	26480.82
419.02	26115.70
419.21	26377.84
419.39	24486.68
419.58	23665.16
419.77	23466.21
419.96	24554.56
420.15	26101.65
420.34	26583.80
420.53	27798.54
420.72	28479.64
420.91	27953.02
421.10	27480.23
421.29	27080.00
421.48	26684.45
421.67	27527.04
421.86	27215.75
422.05	25294.17
422.24	22621.28
422.43	22565.10
422.61	24788.61
422.80	26658.70
422.99	26768.71
423.18	26199.96
423.37	25474.39
423.56	25170.12
423.75	25762.28
423.94	26267.83
424.13	24915.00
424.32	25214.59
424.50	25139.69
424.69	24779.25
424.88	24987.56
425.07	24870.53
425.26	24947.77
425.45	25039.05
425.64	24393.06
425.83	24203.48
426.01	25500.14
426.20	26412.95
426.39	26155.49
426.58	24500.73
426.77	22625.96
426.96	21738.90
427.15	22562.76
427.33	24170.71
427.52	25357.36
427.71	25259.06
427.90	24847.13
428.09	24889.26
428.28	24210.50
428.46	23644.09
428.65	23091.73
428.84	23826.65
429.03	23936.66
429.22	22728.94
429.40	21862.94
429.59	19367.93
429.78	16898.67
429.97	17481.46
430.16	17535.29
430.34	17481.46
430.53	17977.65
430.72	17895.74
430.91	20020.94
431.10	23555.15
431.28	27826.63
431.47	29890.98
431.66	30068.86
431.85	27339.80
432.03	25373.75
432.22	24173.05
432.41	25317.57
432.60	27676.83
432.79	28723.05
432.97	29694.38
433.16	29116.26
433.35	26415.29
433.54	23817.29
433.72	22256.15
433.91	23070.66
434.10	25703.76
434.28	27707.26
434.47	29055.41
434.66	28669.22
434.85	27969.40
435.03	28016.21
435.22	28437.51
435.41	30019.71
435.59	30291.21
435.78	30529.95
435.97	31087.00
436.16	31580.85
436.34	31131.47
436.53	30274.83
436.72	30590.80
436.90	28893.91
437.09	29027.32
437.28	28088.77
437.46	29589.05
437.65	29280.10
437.84	27407.67
438.02	25149.06
438.21	24816.70
438.40	26022.08
438.58	28444.53
438.77	29184.14
438.96	29769.27
439.14	30747.62
439.33	31522.34
439.52	31803.20
439.70	31218.07
439.89	30408.24
440.08	29392.45
440.26	29748.21
440.45	31070.61
440.63	32643.45
440.82	34431.62
441.01	33816.06
441.19	33560.94
441.38	34117.99
441.57	35386.56
441.75	35826.58
441.94	36343.84
442.12	35765.73
442.31	36313.41
442.50	36023.19
442.68	36004.46
442.87	35082.29
443.05	34766.32
443.24	35744.66
443.43	36137.87
443.61	36641.09
443.80	36940.68
443.98	35070.59
444.17	34983.99
444.35	37251.97
444.54	37542.19
444.73	37280.05
444.91	36053.61
445.10	34410.56
445.28	32840.06
445.47	32240.88
445.65	32666.86
445.84	33261.35
446.02	34913.77
446.21	35391.24
446.39	35377.20
446.58	35697.85
446.77	36290.01
446.95	36634.06
447.14	37563.26
447.32	38281.80
447.51	37418.14
447.69	35896.80
447.88	35604.23
448.06	35934.24
448.25	36863.44
448.43	37008.55
448.62	36528.74
448.80	36280.64
448.99	36582.57
449.17	36842.37
449.36	36690.24
449.54	37979.87
449.73	38546.28
449.91	39147.80
450.10	40261.90
450.28	41022.57
450.46	40542.76
450.65	40601.27
450.83	40364.88
451.02	39412.28
451.20	39426.32
451.39	39178.23
451.57	38721.82
451.76	39068.22
451.94	39051.84
452.13	37853.48
452.31	36332.14
452.49	34913.77
452.68	35171.23
452.86	35033.14
453.05	35604.23
453.23	36945.36
453.42	37193.45
453.60	38373.08
453.78	38806.08
453.97	38672.67
454.15	38431.60
454.34	37745.82
454.52	37766.88
454.70	36659.81
454.89	37392.40
455.07	37593.68
455.26	38455.00
455.44	39562.08
455.62	40421.05
455.81	40395.31
455.99	40112.10
456.17	39653.36
456.36	39393.56
456.54	41120.87
456.73	40914.90
456.91	41551.53
457.09	41621.75
457.28	42216.24
457.46	40865.75
457.64	40341.47
457.83	39494.20
458.01	38756.93
458.19	39611.23
458.38	39777.40
458.56	40573.19
458.74	40931.29
458.93	40273.60
459.11	40282.96
459.29	39819.53
459.48	39992.73
459.66	39431.01
459.84	40297.00
460.03	40465.52
460.21	40589.57
460.39	41493.02
460.57	41600.68
460.76	42007.94
460.94	41240.24
461.12	41549.19
461.31	41406.42
461.49	41570.25
461.67	41691.96
461.85	42902.02
462.04	42691.37
462.22	43012.02
462.40	42703.07
462.59	42293.48
462.77	42499.45
462.95	42239.65
463.13	41968.15
463.32	41605.36
463.50	41577.28
463.68	41874.52
463.86	41467.27
464.05	40856.39
464.23	40144.87
464.41	40444.46
464.59	39810.17
464.78	41446.21
464.96	40863.41
465.14	40488.93
465.32	41759.84
465.50	43171.18
465.69	43222.67
465.87	42796.70
466.05	41022.57
466.23	39412.28
466.41	38820.13
466.60	39917.84
466.78	39627.61
466.96	39981.03
467.14	40907.88
467.32	41322.16
467.51	41488.34
467.69	39840.60
467.87	40367.22
468.05	41296.41
468.23	40786.18
468.41	41462.59
468.60	41422.80
468.78	41617.07
468.96	41188.75
469.14	42155.39
469.32	42281.78
469.50	40390.62
469.69	40746.39
469.87	40154.23
470.05	39859.32
470.23	40088.70
470.41	40172.96
470.59	40865.75
470.77	41352.58
470.95	41743.45
471.14	42136.66
471.32	42281.78
471.50	44589.55
471.68	44528.69
471.86	44893.82
472.04	44711.25
472.22	45055.31
472.40	43086.92
472.58	42536.90
472.77	42689.03
472.95	42885.64
473.13	43973.98
473.31	43161.82
473.49	43318.64
473.67	44264.21
473.85	44439.75
474.03	45235.53
474.21	45162.98
474.39	46260.69
474.57	45944.72
474.75	46078.13
474.93	45502.35
475.12	45045.95
475.30	44760.40
475.48	44907.86
475.66	45265.96
475.84	45146.59
476.02	44531.03
476.20	44196.34
476.38	45092.76
476.56	46012.59
476.74	46731.14
476.92	46902.00
477.10	47545.64
477.28	48505.26
477.46	48505.26
477.64	49411.05
477.82	49029.54
478.00	49305.73
478.18	48292.27
478.36	48196.31
478.54	48498.24
478.72	48839.96
478.90	49504.67
479.08	50490.04
479.26	50794.31
479.44	50555.57
479.62	50497.06
479.80	50499.40
479.98	50995.59
480.16	51222.62
480.34	50916.01
480.52	51255.39
480.70	51379.44
480.88	50990.91
481.06	51622.86
481.24	52105.01
481.41	52638.65
481.59	53343.15
481.77	53179.31
481.95	52676.10
482.13	52341.40
482.31	52418.64
482.49	53195.70
482.67	53048.24
482.85	53258.89
483.03	53551.46
483.21	53900.20
483.39	54160.00
483.57	53394.64
483.74	53214.42
483.92	53420.39
484.10	53607.63
484.28	54148.29
484.46	54358.94
484.64	54789.60
484.82	53932.96
485.00	53879.13
485.18	53146.54
485.35	52303.95
485.53	49567.87
485.71	45925.99
485.89	45628.74
486.07	47564.37
486.25	50562.59
486.43	52465.45
486.61	53095.05
486.78	52830.57
486.96	53123.14
487.14	54506.40
487.32	54962.80
487.50	55842.84
487.68	56477.13
487.85	56952.26
488.03	56786.08
488.21	56643.30
488.39	55847.52
488.57	55442.61
488.75	55325.58
488.92	56259.46
489.10	57574.84
489.28	58630.42
489.46	59250.66
489.64	59152.36
489.81	59306.83
489.99	58906.60
490.17	59096.19
490.35	59402.80
490.53	58972.14
490.70	58527.44
490.88	58602.33
491.06	59409.82
491.24	59348.96
491.41	58546.16
491.59	57282.27
491.77	56416.27
491.95	57354.83
492.13	58492.33
492.30	59423.86
492.48	60271.14
492.66	60453.70
492.84	60519.23
493.01	60154.11
493.19	59964.52
493.37	59543.23
493.54	59367.69
493.72	59870.90
493.90	60879.67
494.08	61237.78
494.25	61696.52
494.43	61708.22
494.61	62115.48
494.79	62188.03
494.96	62056.96
495.14	61588.86
495.32	60788.39
495.49	60165.81
495.67	61015.43
495.85	62071.01
496.02	62379.96
496.20	62447.83
496.38	62052.28
496.55	61895.47
496.73	62321.44
496.91	62452.51
497.09	62981.48
497.26	63112.55
497.44	62557.84
497.62	62101.43
497.79	61537.36
497.97	60516.89
498.14	60582.43
498.32	61677.80
498.50	62232.50
498.67	63023.61
498.85	62775.51
499.03	63018.92
499.20	63093.82
499.38	62944.03
499.56	62986.16
499.73	62445.49
499.91	62096.75
500.08	61989.09
500.26	61223.73
500.44	61385.23
500.61	62173.99
500.79	62145.90
500.97	61628.65
501.14	61425.02
501.32	61478.85
501.49	61567.79
501.67	61551.41
501.84	61953.98
502.02	62145.90
502.20	62461.88
502.37	62733.38
502.55	62808.28
502.72	63379.37
502.90	63709.38
503.07	63274.04
503.25	63051.69
503.43	62265.27
503.60	61689.50
503.78	61132.45
503.95	61640.35
504.13	62679.55
504.30	63426.18
504.48	63428.52
504.65	63070.42
504.83	63072.76
505.01	63742.15
505.18	63898.97
505.36	64427.93
505.53	64154.08
505.71	64626.87
505.88	64404.52
506.06	64039.40
506.23	63861.52
506.41	63482.35
506.58	63700.02
506.76	63774.92
506.93	63660.23
507.11	63365.32
507.28	63643.85
507.46	63093.82
507.63	62635.08
507.81	62480.60
507.98	62616.35
508.16	63290.43
508.33	63784.28
508.50	63969.18
508.68	64324.94
508.85	64849.22
509.03	64853.90
509.20	64647.94
509.38	64001.95
509.55	63250.64
509.73	63285.75
509.90	63833.43
510.08	64067.48
510.25	63994.93
510.42	63861.52
510.60	63716.40
510.77	63941.10
510.95	64633.89
511.12	64725.17
511.30	64910.08
511.47	65172.22
511.64	65008.38
511.82	64802.41
511.99	64158.76
512.17	63814.71
512.34	63393.41
512.51	63575.97
512.69	63763.21
512.86	63849.81
513.04	64245.36
513.21	64360.05
513.38	63763.21
513.56	63414.47
513.73	62747.42
513.90	62967.43
514.08	63107.86
514.25	63414.47
514.43	63590.01
514.60	63475.33
514.77	63800.66
514.95	64030.04
515.12	63636.83
515.29	63950.46
515.47	64367.07
515.64	64596.45
515.81	64250.05
515.99	63824.07
516.16	62368.26
516.33	60563.70
516.51	59447.27
516.68	58731.06
516.85	58417.43
517.03	58791.92
517.20	60809.46
517.37	62967.43
517.54	63821.73
517.72	63370.00
517.89	61317.35
518.06	59451.95
518.24	59578.34
518.41	61523.32
518.58	62499.33
518.75	62810.62
518.93	62993.18
519.10	62922.96
519.27	63327.87
519.45	63358.30
519.62	64233.66
519.79	64474.74
519.96	64250.05
520.14	63777.26
520.31	63149.99
520.48	62894.88
520.65	63320.85
520.83	64254.73
521.00	64460.69
521.17	64364.73
521.34	63873.22
521.52	64186.85
521.69	64554.32
521.86	65034.13
522.03	64764.96
522.20	63594.70
522.38	62838.70
522.55	62649.12
522.72	63260.00
522.89	63503.42
523.07	63571.29
523.24	63875.56
523.41	64802.41
523.58	64856.24
523.75	65207.32
523.92	65221.37
524.10	65085.62
524.27	65031.78
524.44	65034.13
524.61	64669.00
524.78	64624.53
524.96	64528.57
525.13	64573.04
525.30	64725.17
525.47	65230.73
525.64	65078.60
525.81	64392.82
525.98	63281.06
526.16	61996.11
526.33	61560.77
526.50	61111.39
526.67	60654.98
526.84	61333.74
527.01	62129.52
527.18	62794.23
527.36	63465.97
527.53	64561.34
527.70	64533.25
527.87	64149.40
528.04	63856.84
528.21	64285.15
528.38	64779.01
528.55	65424.99
528.72	65535.00
528.89	65535.00
529.07	65420.31
529.24	64774.33
529.41	64189.19
529.58	63781.94
529.75	63795.98
529.92	64392.82
530.09	64659.64
530.26	65144.13
530.43	65230.73
530.60	65394.57
530.77	65535.00
530.94	65535.00
531.11	65237.75
531.28	64828.16
531.46	64757.94
531.63	64687.73
531.80	64783.69
531.97	64285.15
532.14	63709.38
532.31	62791.89
532.48	62279.31
532.65	62337.83
532.82	62962.75
532.99	64011.31
533.16	64355.37
533.33	64821.14
533.50	64687.73
533.67	64053.44
533.84	63767.90
534.01	63884.92
534.18	63943.44
534.35	64285.15
534.52	64207.92
534.69	64402.18
534.86	64638.57
535.03	64846.88
535.20	65307.97
535.37	65535.00
535.54	65535.00
535.71	65134.77
535.88	65017.74
536.05	64406.86
536.22	64184.51
536.38	63760.87
536.55	63327.87
536.72	63133.61
536.89	63028.29
537.06	63723.43
537.23	64444.31
537.40	64563.68
537.57	64629.21
537.74	64437.29
537.91	64434.95
538.08	64264.09
538.25	64231.32
538.42	64360.05
538.59	64336.65
538.75	63711.72
538.92	63454.26
539.09	63470.65
539.26	63203.83
539.43	63018.92
539.60	63182.76
539.77	63210.85
539.94	63119.57
540.11	62644.44
540.28	62159.95
540.44	62382.30
540.61	62504.01
540.78	62522.73
540.95	63084.46
541.12	63257.66
541.29	63582.99
541.46	63814.71
541.62	63824.07
541.79	63648.53
541.96	63264.68
542.13	63093.82
542.30	63430.86
542.47	63655.55
542.63	63477.67
542.80	63117.23
542.97	63194.46
543.14	63171.06
543.31	63217.87
543.48	63608.74
543.64	64512.19
543.81	64584.74
543.98	64451.33
544.15	63903.65
544.32	63566.61
544.48	63348.94
544.65	63889.60
544.82	64060.46
544.99	63908.33
545.16	63522.14
545.32	63295.11
545.49	64126.00
545.66	64413.88
545.83	64093.23
546.00	63772.58
546.16	63346.60
546.33	63529.16
546.50	63423.84
546.67	63898.97
546.83	63508.10
547.00	63585.33
547.17	62827.00
547.34	62583.58
547.50	62504.01
547.67	62920.62
547.84	62974.45
548.00	63299.79
548.17	63884.92
548.34	63358.30
548.51	63519.80
548.67	63599.38
548.84	63636.83
549.01	63435.54
549.18	63430.86
549.34	63423.84
549.51	63304.47
549.68	63334.90
549.84	62969.77
550.01	63128.93
550.18	62960.41
550.34	63124.25
550.51	62972.11
550.68	63220.21
550.84	62693.59
551.01	62782.53
551.18	62658.48
551.34	62948.71
551.51	63281.06
551.68	63477.67
551.84	63620.44
552.01	63166.38
552.18	63269.36
552.34	62688.91
552.51	62330.81
552.68	62202.08
552.84	62632.74
553.01	62955.73
553.18	62700.61
553.34	62812.96
553.51	62993.18
553.67	63037.65
553.84	63267.02
554.01	63175.74
554.17	63063.39
554.34	63154.68
554.51	63213.19
554.67	63264.68
554.84	63304.47
555.00	63030.63
555.17	62890.19
555.33	62876.15
555.50	62709.97
555.67	62897.22
555.83	62691.25
556.00	62326.13
556.16	62398.68
556.33	62078.03
556.50	62075.69
556.66	61785.46
556.83	61616.94
556.99	61895.47
557.16	61872.06
557.32	62124.84
557.49	62504.01
557.65	62220.80
557.82	62218.46
557.98	62143.56
558.15	61769.08
558.32	61116.07
558.48	60404.55
558.65	60542.64
558.81	60692.43
558.98	61193.31
559.14	61375.87
559.31	61347.78
559.47	61453.11
559.64	60982.66
559.80	60706.47
559.97	60760.31
560.13	61230.75
560.30	61843.98
560.46	62394.00
560.63	62717.00
560.79	62658.48
560.96	62316.76
561.12	61371.19
561.29	60350.71
561.45	60587.11
561.61	61148.84
561.78	61235.44
561.94	61403.95
562.11	61350.12
562.27	61207.35
562.44	61605.24
562.60	61787.80
562.77	61815.89
562.93	61773.76
563.10	61736.31
563.26	61350.12
563.42	61289.27
563.59	61146.50
563.75	61102.03
563.92	61202.67
564.08	61003.72
564.24	61223.73
564.41	61310.33
564.57	61413.32
564.74	61286.93
564.90	61176.92
565.07	60706.47
565.23	60580.09
565.39	60196.24
565.56	60055.81
565.72	59819.41
565.88	60009.00
566.05	60090.91
566.21	60266.45
566.38	60631.58
566.54	60472.42
566.70	60856.27
566.87	61078.62
567.03	61057.56
567.19	61272.88
567.36	60977.98
567.52	60905.42
567.68	60556.68
567.85	60083.89
568.01	59781.96
568.17	59381.73
568.34	59414.50
568.50	59440.24
568.66	59653.23
568.83	59889.63
568.99	59962.18
569.15	60198.58
569.32	60107.30
569.48	59931.76
569.64	59786.64
569.81	59578.34
569.97	59550.25
570.13	59215.55
570.30	58944.05
570.46	58590.63
570.62	58206.78
570.78	58073.37
570.95	58417.43
571.11	58873.84
571.27	59075.12
571.43	59370.03
571.60	59545.57
571.76	59732.81
571.92	59971.55
572.09	60172.83
572.25	60207.94
572.41	60034.74
572.57	59767.92
572.74	59810.05
572.90	59636.85
573.06	59543.23
573.22	59468.33
573.38	59491.74
573.55	59442.59
573.71	59873.24
573.87	59540.89
574.03	59416.84
574.20	59456.63
574.36	59178.10
574.52	59061.08
574.68	59021.29
574.84	58501.69
575.01	58305.09
575.17	58174.02
575.33	58506.37
575.49	58738.08
575.65	58574.25
575.82	58541.48
575.98	58262.96
576.14	58450.20
576.30	58850.43
576.46	58887.88
576.62	58880.86
576.79	58791.92
576.95	58438.50
577.11	58443.18
577.27	58457.22
577.43	58656.17
577.59	58230.19
577.75	57867.40
577.92	57474.20
578.08	57209.71
578.24	57329.08
578.40	57755.06
578.56	57935.28
578.72	57794.85
578.88	57844.00
579.04	58136.57
579.21	58134.23
579.37	58202.10
579.53	58253.59
579.69	58302.74
579.85	58663.19
580.01	58223.17
580.17	57963.37
580.33	57811.23
580.49	57946.98
580.65	58136.57
580.82	58410.41
580.98	58309.77
581.14	58026.56
581.30	58377.64
581.46	58178.70
581.62	58298.06
581.78	58482.97
581.94	58588.29
582.10	58408.07
582.26	58618.72
582.42	58375.30
582.58	58527.44
582.74	58291.04
582.90	58478.28
583.06	58410.41
583.22	58246.57
583.38	58209.12
583.54	58047.63
583.70	57996.13
583.86	58330.83
584.02	57996.13
584.18	58117.84
584.34	57900.17
584.50	58195.08
584.66	57848.68
584.82	57642.71
584.98	57506.96
585.14	57277.59
585.30	56720.54
585.46	56324.99
585.62	56336.69
585.78	56652.67
585.94	56418.61
586.10	56863.32
586.26	57165.24
586.42	57270.57
586.58	57485.90
586.74	57254.18
586.90	57286.95
587.06	57066.94
587.22	57453.13
587.38	56945.23
587.54	56631.60
587.70	56505.21
587.86	56289.88
588.02	56149.45
588.18	56151.79
588.34	55267.07
588.49	53509.33
588.65	51643.92
588.81	51475.40
588.97	52112.03
589.13	51648.60
589.29	51718.82
589.45	52226.71
589.61	53202.72
589.77	54316.81
589.93	54878.54
590.08	55480.06
590.24	55690.71
590.40	55721.13
590.56	55716.45
590.72	55814.76
590.88	55358.35
591.04	55002.59
591.20	54827.05
591.35	55203.88
591.51	55138.34
591.67	54997.91
591.83	55238.98
591.99	55131.32
592.15	55491.76
592.31	55323.24
592.46	55334.95
592.62	55206.22
592.78	54763.85
592.94	54777.90
593.10	55241.32
593.26	55330.26
593.41	55737.52
593.57	55004.93
593.73	54808.32
593.89	54653.85
594.05	54717.04
594.20	54160.00
594.36	54075.74
594.52	53755.08
594.68	54007.86
594.84	54150.63
594.99	54475.97
595.15	54363.62
595.31	54494.69
595.47	54422.14
595.62	54983.86
595.78	54869.18
595.94	55021.31
596.10	54855.14
596.25	54695.98
596.41	54466.61
596.57	54398.73
596.73	54499.37
596.88	54593.00
597.04	54688.96
597.20	54239.57
597.36	53932.96
597.51	54033.61
597.67	54204.47
597.83	54103.82
597.99	53961.05
598.14	53736.36
598.30	53736.36
598.46	53783.17
598.61	53638.06
598.77	53654.44
598.93	53935.30
599.09	53968.07
599.24	54344.90
599.40	53771.47
599.56	54073.40
599.71	54000.84
599.87	53965.73
600.03	53839.34
600.18	53502.31
600.34	53242.51
600.50	53193.36
600.65	53055.26
600.81	53387.62
600.97	53659.12
601.12	53233.14
601.28	53069.31
601.44	53209.74
601.59	53029.52
601.75	52636.31
601.91	52456.09
602.06	52652.69
602.22	53310.38
602.37	52996.75
602.53	53062.29
602.69	53148.88
602.84	53539.75
603.00	53787.85
603.16	53757.42
603.31	53719.98
603.47	53853.39
603.62	53373.58
603.78	53446.13
603.94	53380.60
604.09	53286.98
604.25	53045.90
604.40	52938.24
604.56	53198.04
604.71	53502.31
604.87	53148.88
605.03	53076.33
605.18	53015.47
605.34	52741.63
605.49	52673.76
605.65	52671.42
605.80	52741.63
605.96	52488.85
606.12	52142.45
606.27	52332.04
606.43	52128.41
606.58	52755.68
606.74	52781.42
606.89	52650.35
607.05	52713.55
607.20	52760.36
607.36	52383.53
607.51	52095.64
607.67	51714.14
607.82	51826.48
607.98	51491.79
608.13	51512.85
608.29	51370.08
608.44	51440.29
608.60	51660.30
608.75	51510.51
608.91	51283.48
609.06	51145.39
609.22	51304.54
609.37	51374.76
609.53	51239.01
609.68	51021.34
609.84	50464.29
609.99	50167.04
610.15	50153.00
610.30	50466.63
610.46	50754.52
610.61	50969.85
610.76	50927.72
610.92	51267.09
611.07	51519.87
611.23	51370.08
611.38	51583.07
611.54	50990.91
611.69	50506.42
611.84	50026.61
612.00	49659.15
612.15	50033.63
612.31	49897.88
612.46	49904.90
612.62	50019.59
612.77	50274.71
612.92	50780.26
613.08	50089.80
613.23	49146.57
613.39	48545.05
613.54	48189.29
613.69	48739.32
613.85	48900.81
614.00	48893.79
614.15	49343.17
614.31	49275.30
614.46	49502.33
614.62	49113.80
614.77	49785.54
614.92	49544.46
615.08	49141.89
615.23	48844.64
615.38	49268.28
615.54	48100.35
615.69	47255.42
615.84	46700.71
616.00	46366.01
616.15	46721.77
616.30	47079.88
616.46	47075.19
616.61	46897.31
616.76	47281.16
616.92	47461.38
617.07	48247.80
617.22	47805.44
617.37	47725.86
617.53	48069.92
617.68	48779.10
617.83	48545.05
617.99	48577.82
618.14	48236.10
618.29	48107.37
618.45	47585.43
618.60	47070.51
618.75	47260.10
618.90	47091.58
619.06	47297.55
619.21	47672.03
619.36	47896.72
619.51	47767.99
619.67	47365.42
619.82	47555.00
619.97	47807.78
620.12	47360.74
620.28	47517.56
620.43	47868.64
620.58	47929.49
620.73	47452.02
620.89	46848.16
621.04	46850.50
621.19	46691.35
621.34	46396.44
621.49	46157.70
621.65	46202.18
621.80	46204.52
621.95	46007.91
622.10	46726.46
622.25	46607.09
622.41	46213.88
622.56	45715.34
622.71	45057.65
622.86	44825.94
623.01	45397.03
623.16	45621.72
623.32	45595.98
623.47	45324.47
623.62	44957.01
623.77	45167.66
623.92	44823.60
624.07	44130.80
624.23	43697.80
624.38	43529.28
624.53	43927.17
624.68	44243.15
624.83	43679.08
624.98	43367.79
625.13	42913.72
625.29	43508.22
625.44	42969.90
625.59	43721.21
625.74	43632.27
625.89	43622.90
626.04	43854.62
626.19	43658.01
626.34	43569.07
626.49	43597.16
626.65	43601.84
626.80	43475.45
626.95	43365.45
627.10	42646.90
627.25	42759.25
627.40	40863.41
627.55	40556.80
627.70	40264.24
627.85	40243.17
628.00	41099.81
628.15	41848.78
628.30	42092.19
628.45	41970.49
628.60	41581.96
628.76	41872.18
628.91	41710.69
629.06	41612.38
629.21	41694.30
629.36	41106.83
629.51	40818.94
629.66	40854.05
629.81	40652.76
629.96	40268.92
630.11	40793.20
630.26	41275.35
630.41	41170.02
630.56	40957.03
630.71	41151.30
630.86	41535.15
631.01	40545.10
631.16	40191.68
631.31	39772.72
631.46	39508.24
631.61	39803.15
631.76	40093.38
631.91	40154.23
632.06	41120.87
632.21	41209.81
632.36	41249.60
632.51	40903.20
632.66	40950.01
632.81	40718.30
632.96	41031.93
633.10	40187.00
633.25	39824.22
633.40	39697.83
633.55	39807.83
633.70	39929.54
633.85	39880.39
634.00	40034.86
634.15	40212.74
634.30	39934.22
634.45	40149.55
634.60	40397.65
634.75	40252.53
634.90	39952.94
635.05	40236.15
635.19	40030.18
635.34	39840.60
635.49	39924.86
635.64	39412.28
635.79	39412.28
635.94	39189.93
636.09	39157.16
636.24	39246.10
636.39	39267.17
636.53	39384.19
636.68	39248.44
636.83	39215.68
636.98	40034.86
637.13	39620.59
637.28	39934.22
637.43	39545.69
637.57	39622.93
637.72	39206.31
637.87	39498.88
638.02	39079.92
638.17	38960.56
638.32	39005.03
638.46	39503.56
638.61	39000.35
638.76	38375.42
638.91	38286.48
639.06	38080.52
639.20	38167.12
639.35	38382.45
639.50	37691.99
639.65	37111.53
639.80	37839.44
639.94	37912.00
640.09	38092.22
640.24	38017.32
640.39	37626.45
640.54	37558.58
640.68	36776.84
640.83	36245.54
640.98	36697.26
641.13	36720.66
641.27	37132.60
641.42	37146.64
641.57	37116.22
641.72	36486.61
641.86	36390.65
642.01	36884.50
642.16	37160.69
642.31	37406.44
642.45	37792.63
642.60	37024.93
642.75	36477.25
642.90	36510.02
643.04	36467.89
643.19	36828.33
643.34	36362.56
643.48	36374.27
643.63	36334.48
643.78	36182.34
643.93	36613.00
644.07	36877.48
644.22	37158.34
644.37	36720.66
644.51	36495.97
644.66	36058.29
644.81	35962.33
644.95	35990.42
645.10	35594.87
645.25	35384.22
645.39	35468.48
645.54	35199.32
645.69	34951.22
645.83	34754.61
645.98	34139.05
646.13	34410.56
646.27	33986.92
646.42	34375.45
646.57	34061.82
646.71	34352.04
646.86	34199.91
647.00	33900.32
647.15	33701.37
647.30	34066.50
647.44	33799.68
647.59	33979.90
647.74	33905.00
647.88	33495.41
648.03	33490.73
648.17	33645.20
648.32	33848.83
648.47	34054.79
648.61	33640.52
648.76	33968.19
648.90	32741.75
649.05	31627.66
649.20	31206.36
649.34	31143.17
649.49	30986.35
649.63	31850.01
649.78	32559.19
649.92	33106.88
650.07	33216.88
650.21	33663.93
650.36	33483.70
650.51	33640.52
650.65	33879.25
650.80	33776.27
650.94	33425.19
651.09	32739.41
651.23	32098.11
651.38	31665.11
651.52	31744.69
651.67	32217.47
651.81	32615.37
651.96	32498.34
652.10	32652.81
652.25	32664.52
652.39	33069.43
652.54	32833.04
652.68	32936.02
652.83	32306.41
652.97	32444.51
653.12	32481.95
653.26	32589.62
653.41	32591.96
653.55	32790.91
653.70	32636.43
653.84	32598.98
653.99	32158.96
654.13	31718.94
654.27	31278.92
654.42	30836.56
654.56	31180.62
654.71	31110.40
654.85	30796.77
655.00	30593.14
655.14	30387.18
655.29	29867.58
655.43	29247.33
655.57	28219.84
655.72	26529.97
655.86	23843.04
656.01	22939.59
656.15	23115.13
656.30	24758.19
656.44	26094.63
656.58	27386.61
656.73	28407.08
656.87	28741.78
657.01	28671.56
657.16	28922.00
657.30	29811.40
657.45	30291.21
657.59	30433.99
657.73	30558.03
657.88	30625.91
658.02	30478.46
658.16	30649.32
658.31	30501.86
658.45	30480.80
658.60	29993.97
658.74	30082.91
658.88	29465.00
659.03	29427.56
659.17	29682.67
659.31	29387.77
659.46	29666.29
659.60	30031.41
659.74	30171.85
659.89	29750.55
660.03	30218.66
660.17	30661.02
660.32	30412.92
660.46	30043.12
660.60	29598.41
660.74	29734.17
660.89	29762.25
661.03	29254.36
661.17	29965.88
661.32	29106.90
661.46	29488.41
661.60	29783.32
661.74	29867.58
661.89	29743.53
662.03	29912.05
662.17	29270.74
662.31	29088.18
662.46	29610.12
662.60	29273.08
662.74	29228.61
662.88	28725.39
663.03	28505.38
663.17	28142.60
663.31	28591.98
663.45	28711.35
663.60	28364.95
663.74	28238.56
663.88	28271.33
664.02	28166.01
664.17	28271.33
664.31	27882.80
664.45	28386.02
664.59	28671.56
664.73	28521.77
664.88	28343.89
665.02	28119.20
665.16	28650.50
665.30	27927.27
665.44	28121.54
665.59	28077.07
665.73	27601.94
665.87	27278.94
666.01	27115.11
666.15	26841.26
666.29	27087.02
666.44	27346.82
666.58	27309.37
666.72	27028.51
666.86	27552.79
667.00	27807.90
667.14	26717.22
667.28	26675.09
667.43	26312.30
667.57	26848.29
667.71	26452.73
667.85	26698.49
667.99	26169.53
668.13	26829.56
668.27	26501.89
668.41	26588.49
668.56	26251.45
668.70	26494.86
668.84	26579.12
668.98	26228.04
669.12	26532.31
669.26	26265.49
669.40	25947.18
669.54	25926.11
669.68	26160.17
669.82	25507.16
669.96	25406.52
670.10	25181.82
670.25	25268.42
670.39	25516.52
670.53	25069.48
670.67	25397.15
670.81	25158.42
670.95	24828.40
671.09	24968.84
671.23	24702.01
671.37	24821.38
671.51	24482.00
671.65	24807.34
671.79	24402.43
671.93	24467.96
672.07	24545.20
672.21	24641.16
672.35	24472.64
672.49	24404.77
672.63	24552.22
672.77	24166.03
672.91	24208.16
673.05	23957.72
673.19	24060.71
673.33	23852.40
673.47	23992.83
673.61	23892.19
673.75	23817.29
673.89	24198.80
674.03	23742.39
674.17	23749.42
674.31	23784.52
674.45	23393.65
674.59	23391.31
674.73	23278.97
674.87	23316.42
675.01	23014.49
675.15	23049.60
675.29	23040.23
675.43	22939.59
675.56	23274.29
675.70	23122.15
675.84	23180.67
675.98	22309.99
676.12	22827.24
676.26	22649.36
676.40	22775.75
676.54	22602.55
676.68	22569.79
676.82	22010.40
676.96	22370.84
677.10	22061.89
677.23	22038.48
677.37	22398.93
677.51	22265.52
677.65	22040.82
677.79	21774.00
677.93	21532.93
678.07	21472.07
678.21	21287.17
678.34	21233.34
678.48	21074.18
678.62	20931.41
678.76	21135.04
678.90	20980.56
679.04	20772.25
679.18	20966.52
679.31	20793.32
679.45	20723.10
679.59	20727.78
679.73	20636.50
679.87	20489.05
680.00	20414.15
680.14	20224.57
680.28	20336.91
680.42	19878.17
680.56	20034.99
680.70	20081.80
680.83	19683.91
680.97	19836.04
681.11	19768.16
681.25	19955.41
681.39	19791.57
681.52	19798.59
681.66	19913.28
681.80	19569.22
681.94	19620.71
682.07	19784.55
682.21	19529.43
682.35	19278.99
682.49	19356.23
682.62	18857.70
682.76	18981.74
682.90	18944.30
683.04	18874.08
683.17	18778.12
683.31	18656.41
683.45	18242.14
683.59	18164.90
683.72	18061.91
683.86	17912.12
684.00	17401.88
684.13	17827.86
684.27	17626.57
684.41	17862.97
684.55	17804.46
684.68	17668.70
684.82	17678.07
684.96	17514.23
685.09	17678.07
685.23	17177.19
685.37	17092.93
685.50	17116.34
685.64	16936.12
685.78	16882.28
685.91	16973.56
686.05	17226.34
686.19	16287.79
686.32	15695.63
686.46	13818.52
686.60	12173.13
686.73	11204.14
686.87	10689.23
687.01	10696.25
687.14	10752.42
687.28	11159.67
687.42	11477.99
687.55	11721.40
687.69	12980.61
687.82	13172.54
687.96	13937.89
688.10	13596.17
688.23	13694.47
688.37	13483.83
688.50	13179.56
688.64	12910.40
688.78	12807.41
688.91	12760.60
689.05	12657.62
689.18	12683.36
689.32	12472.71
689.46	12643.57
689.59	12964.23
689.73	12830.82
689.86	12931.46
690.00	13104.66
690.13	12716.13
690.27	12945.50
690.41	12926.78
690.54	12985.29
690.68	13303.60
690.81	12968.91
690.95	13394.89
691.08	13181.90
691.22	13231.05
691.35	12985.29
691.49	13319.99
691.62	13135.09
691.76	13125.72
691.89	13226.37
692.03	13055.51
692.16	13060.19
692.30	12711.45
692.43	12699.75
692.57	12732.51
692.70	12423.56
692.84	12430.59
692.97	12250.36
693.11	12360.37
693.24	12339.30
693.38	12304.20
693.51	12156.74
693.65	12072.48
693.78	11798.64
693.92	11730.76
694.05	11705.02
694.19	11880.56
694.32	11953.12
694.45	11662.89
694.59	11779.92
694.72	11747.15
694.86	12074.82
694.99	11728.42
695.13	11655.87
695.26	11475.65
695.39	11304.79
695.53	11414.79
695.66	11248.61
695.80	11407.77
695.93	11414.79
696.07	11627.78
696.20	11864.18
696.33	11683.95
696.47	11791.62
696.60	12128.66
696.73	11920.35
696.87	11927.37
697.00	11854.81
697.14	11513.10
697.27	11353.94
697.40	11194.78
697.54	10984.13
697.67	10878.81
697.80	10904.56
697.94	11028.60
698.07	10764.12
698.21	10691.57
698.34	10661.14
698.47	10684.55
698.61	10408.36
698.74	10153.24
698.87	10370.91
699.01	10267.93
699.14	10134.52
699.27	10326.44
699.40	10492.62
699.54	9970.68
699.67	9982.38
699.80	9877.06
699.94	9996.43
700.07	9891.10
700.20	9666.41
700.34	9474.49
700.47	9554.07
700.60	9579.81
700.73	9664.07
700.87	9362.14
701.00	9378.53
701.13	9303.63
701.26	9247.46
701.40	9212.35
701.53	9149.15
701.66	9142.13
701.79	9193.62
701.93	9064.89
702.06	9200.65
702.19	8858.93
702.32	8980.64
702.46	8744.24
702.59	8961.91
702.72	8980.64
702.85	9029.79
702.99	9022.77
703.12	8898.72
703.25	9018.08
703.38	8999.36
703.51	8652.96
703.65	8638.92
703.78	8734.88
703.91	8594.45
704.04	8669.34
704.17	8594.45
704.31	8484.44
704.44	8814.46
704.57	8730.20
704.70	8542.96
704.83	8613.17
704.96	8346.35
705.10	8334.65
705.23	8156.77
>>>>>End Processed Spectral Data<<<<<
