SpectraSuite Data File
++++++++++++++++++++++++++++++++++++
Date: Mon Oct 07 14:53:33 GMT-05:00 2013
User: price-jones
Dark Spectrum Present: No
Reference Spectrum Present: No
Number of Sampled Component Spectra: 1
Spectrometers: USB2+H05261
Integration Time (usec): 100000 (USB2+H05261)
Spectra Averaged: 1 (USB2+H05261)
Boxcar Smoothing: 0 (USB2+H05261)
Correct for Electrical Dark: No (USB2+H05261)
Strobe/Lamp Enabled: No (USB2+H05261)
Correct for Detector Non-linearity: No (USB2+H05261)
Correct for Stray Light: No (USB2+H05261)
Number of Pixels in Processed Spectrum: 2048
>>>>>Begin Processed Spectral Data<<<<<
365.73	0.00
365.92	0.00
366.12	0.00
366.32	0.00
366.52	0.00
366.72	0.00
366.91	0.00
367.11	0.00
367.31	0.00
367.51	0.00
367.70	0.00
367.90	0.00
368.10	0.00
368.30	0.00
368.49	0.00
368.69	0.00
368.89	0.00
369.09	0.00
369.28	0.00
369.48	0.00
369.68	0.00
369.87	0.00
370.07	0.00
370.27	0.00
370.47	667.05
370.66	3002.91
370.86	3468.67
371.06	3925.08
371.25	3838.48
371.45	3494.42
371.65	3243.98
371.84	2949.08
372.04	3068.44
372.24	3494.42
372.44	3637.19
372.63	3599.74
372.83	3403.14
373.03	2930.35
373.22	2750.13
373.42	2848.43
373.62	3290.79
373.81	3658.26
374.01	3730.81
374.21	3279.09
374.40	2951.42
374.60	3105.89
374.79	3613.79
374.99	4067.85
375.19	4578.09
375.38	4454.04
375.58	4222.33
375.78	4042.11
375.97	4173.18
376.17	4404.89
376.37	4365.10
376.56	4374.46
376.76	4739.58
376.95	5088.32
377.15	5455.79
377.35	5542.39
377.54	5886.45
377.74	6139.23
377.93	6125.18
378.13	5788.14
378.33	5654.73
378.52	5111.73
378.72	4816.82
378.91	4847.25
379.11	4683.41
379.31	4421.27
379.50	4573.41
379.70	4908.10
379.89	5460.47
380.09	5764.74
380.28	5994.11
380.48	5947.30
380.68	5724.95
380.87	5481.53
381.07	4983.00
381.26	4842.57
381.46	4571.07
381.65	4379.14
381.85	4292.54
382.04	4067.85
382.24	3908.69
382.43	3648.90
382.63	3377.39
382.83	3655.92
383.02	3709.75
383.22	3456.97
383.41	3590.38
383.61	3782.31
383.80	4557.02
384.00	5142.16
384.19	5591.54
384.39	5781.12
384.58	5741.33
384.78	5778.78
384.97	5703.89
385.17	5343.44
385.36	5291.95
385.56	4870.65
385.75	5097.69
385.95	5589.20
386.14	5973.05
386.34	5982.41
386.53	5909.85
386.72	5605.58
386.92	5432.38
387.11	5778.78
387.31	5970.71
387.50	6101.78
387.70	5671.12
387.89	5729.63
388.09	5633.67
388.28	5626.65
388.48	5731.97
388.67	6305.40
388.86	6829.68
389.06	7293.11
389.25	7801.01
389.45	7763.56
389.64	7859.52
389.84	7730.79
390.03	7637.17
390.22	7438.22
390.42	7730.79
390.61	8491.46
390.81	8947.87
391.00	9177.24
391.19	9011.06
391.39	8704.45
391.58	8236.35
391.78	7566.95
391.97	7524.82
392.16	6869.47
392.36	6483.28
392.55	5252.16
392.75	4149.77
392.94	3276.75
393.13	3304.84
393.33	3875.93
393.52	4985.34
393.71	6141.57
393.91	6970.12
394.10	7435.88
394.29	8290.18
394.49	8861.27
394.68	9584.49
394.88	9591.52
395.07	9860.68
395.26	9806.84
395.46	9579.81
395.65	8938.51
395.84	7988.25
396.04	6595.63
396.23	5390.25
396.42	4402.55
396.62	4346.37
396.81	5027.47
397.00	6345.19
397.19	8224.64
397.39	9523.64
397.58	10829.66
397.77	11552.88
397.97	11798.64
398.16	12030.35
398.35	12428.24
398.55	12973.59
398.74	13273.18
398.93	13631.28
399.12	13488.51
399.32	12891.67
399.51	13331.69
399.70	14120.45
399.90	14005.77
400.09	14045.55
400.28	13858.31
400.47	13956.61
400.67	14747.72
400.86	14988.79
401.05	15131.56
401.24	15302.42
401.44	15351.57
401.63	15346.89
401.82	15524.77
402.01	15763.51
402.21	15367.96
402.40	15646.48
402.59	15108.16
402.78	14595.58
402.97	14193.01
403.17	14588.56
403.36	15356.25
403.55	16025.65
403.74	16664.61
403.93	15492.01
404.13	14614.30
404.32	14197.69
404.51	14501.96
404.70	15815.00
404.89	16088.84
405.09	15417.11
405.28	15419.45
405.47	15286.04
405.66	15349.23
405.85	15021.56
406.05	14368.55
406.24	14597.92
406.43	15227.53
406.62	15700.31
406.81	16226.93
407.00	15391.36
407.20	14836.66
407.39	15286.04
407.58	16161.40
407.77	16376.73
407.96	16903.35
408.15	17142.08
408.34	17198.26
408.54	18052.55
408.73	17905.10
408.92	17816.16
409.11	17600.83
409.30	16409.50
409.49	15330.51
409.68	14415.36
409.87	13996.40
410.07	14874.10
410.26	16149.70
410.45	17116.34
410.64	17481.46
410.83	18230.43
411.02	18534.70
411.21	19381.98
411.40	18794.50
411.59	19129.20
411.78	18911.53
411.98	18747.69
412.17	19363.25
412.36	18717.26
412.55	18848.33
412.74	18314.69
412.93	17685.09
413.12	18216.39
413.31	19669.86
413.50	19866.47
413.69	20496.07
413.88	19365.59
414.07	18993.45
414.26	19400.70
414.45	19749.44
414.64	19651.14
414.83	20320.53
415.02	19756.46
415.22	19667.52
415.41	20327.55
415.60	20596.71
415.79	21589.10
415.98	21825.50
416.17	22019.76
416.36	21752.94
416.55	21048.44
416.74	20779.28
416.93	19978.81
417.12	19978.81
417.31	20255.00
417.50	20697.36
417.69	21174.83
417.88	21151.42
418.07	20802.68
418.26	20585.01
418.45	20776.94
418.64	21687.40
418.83	22136.79
419.02	21881.67
419.21	22068.91
419.39	20531.18
419.58	19854.76
419.77	19899.23
419.96	20868.22
420.15	21937.84
420.34	22579.15
420.53	23473.23
420.72	23950.70
420.91	23608.98
421.10	22902.14
421.29	23171.30
421.48	22097.00
421.67	23459.19
421.86	22916.19
422.05	21535.27
422.24	18988.77
422.43	18740.67
422.61	20776.94
422.80	22527.66
422.99	22836.61
423.18	21675.70
423.37	21312.92
423.56	21317.60
423.75	21570.38
423.94	22408.29
424.13	20725.44
424.32	21223.98
424.50	21083.55
424.69	20912.69
424.88	20964.18
425.07	21167.80
425.26	20711.40
425.45	20807.36
425.64	20510.11
425.83	20519.48
426.01	21509.52
426.20	22012.74
426.39	21972.95
426.58	20430.54
426.77	18810.89
426.96	18033.83
427.15	18883.44
427.33	20177.76
427.52	21476.76
427.71	21221.64
427.90	21081.21
428.09	21008.65
428.28	20453.94
428.46	19660.50
428.65	19358.57
428.84	19864.13
429.03	20372.02
429.22	19264.95
429.40	18164.90
429.59	16573.33
429.78	14621.33
429.97	14466.85
430.16	14647.07
430.34	15026.24
430.53	14972.41
430.72	15201.78
430.91	17011.01
431.10	19695.61
431.28	23426.42
431.47	25324.60
431.66	25198.21
431.85	23075.34
432.03	21305.90
432.22	20339.26
432.41	20863.54
432.60	23157.26
432.79	24390.72
432.97	24975.86
433.16	24556.90
433.35	22600.21
433.54	20402.45
433.72	18904.51
433.91	19491.98
434.10	21649.96
434.28	23356.21
434.47	24706.70
434.66	24100.50
434.85	23571.54
435.03	23206.41
435.22	24203.48
435.41	25834.83
435.59	25188.85
435.78	25956.54
435.97	26604.87
436.16	27019.14
436.34	26237.41
436.53	25792.70
436.72	25771.64
436.90	24339.23
437.09	24386.04
437.28	24086.45
437.46	24826.06
437.65	24884.58
437.84	23197.05
438.02	21106.95
438.21	21008.65
438.40	22347.44
438.58	24280.72
438.77	24744.14
438.96	25064.80
439.14	26211.66
439.33	26532.31
439.52	26925.52
439.70	26682.11
439.89	25771.64
440.08	25247.36
440.26	24987.56
440.45	25769.30
440.63	27700.24
440.82	29282.44
441.01	28517.09
441.19	28430.49
441.38	28755.82
441.57	29818.42
441.75	30558.03
441.94	30679.74
442.12	30340.36
442.31	30775.70
442.50	31189.98
442.68	30352.07
442.87	30003.33
443.05	29369.04
443.24	29734.17
443.43	30682.08
443.61	31424.03
443.80	31592.55
443.98	29795.02
444.17	30024.39
444.35	31498.93
444.54	32542.81
444.73	31672.13
444.91	30403.56
445.10	29219.25
445.28	28252.61
445.47	28016.21
445.65	27529.38
445.84	28566.24
446.02	29537.56
446.21	29743.53
446.39	30139.08
446.58	30707.83
446.77	31129.12
446.95	31084.65
447.14	32261.94
447.32	32591.96
447.51	32070.02
447.69	31105.72
447.88	30607.19
448.06	30895.07
448.25	31557.44
448.43	31569.15
448.62	30815.49
448.80	30883.37
448.99	31204.02
449.17	31681.49
449.36	31208.70
449.54	32348.54
449.73	33113.90
449.91	33464.98
450.10	34314.59
450.28	34859.94
450.46	34384.81
450.65	34581.42
450.83	34595.46
451.02	33844.15
451.20	33242.63
451.39	33228.59
451.57	32975.81
451.76	33010.92
451.94	33137.30
452.13	31948.31
452.31	31388.92
452.49	29560.97
452.68	30150.78
452.86	29839.49
453.05	30265.47
453.23	31051.89
453.42	32027.89
453.60	32570.90
453.78	32973.47
453.97	32301.73
454.15	32875.16
454.34	32006.83
454.52	32128.53
454.70	31431.05
454.89	31536.38
455.07	31835.97
455.26	32116.83
455.44	33956.49
455.62	34298.21
455.81	34155.44
455.99	33792.65
456.17	33422.85
456.36	33846.49
456.54	34909.09
456.73	34876.32
456.91	35243.79
457.09	35875.73
457.28	36327.45
457.46	35206.34
457.64	34529.92
457.83	33408.81
458.01	32685.58
458.19	33656.90
458.38	33647.54
458.56	35091.65
458.74	34745.25
458.93	34408.22
459.11	34031.39
459.29	34026.71
459.48	34050.11
459.66	33806.70
459.84	34328.64
460.03	34684.40
460.21	34866.96
460.39	36013.82
460.57	35267.19
460.76	36091.06
460.94	36348.52
461.12	35232.08
461.31	36074.68
461.49	35285.92
461.67	35637.00
461.85	36421.08
462.04	36390.65
462.22	36954.72
462.40	36767.48
462.59	36510.02
462.77	36325.11
462.95	36683.22
463.13	36449.16
463.32	35747.00
463.50	35519.97
463.68	35709.55
463.86	35658.06
464.05	34925.47
464.23	34211.61
464.41	34230.33
464.59	33586.69
464.78	35496.56
464.96	35189.95
465.14	34766.32
465.32	35782.11
465.50	36432.78
465.69	36828.33
465.87	36341.50
466.05	35147.82
466.23	34015.01
466.41	33015.60
466.60	34113.31
466.78	34022.03
466.96	35035.48
467.14	35218.04
467.32	35489.54
467.51	35620.61
467.69	34188.21
467.87	34719.51
468.05	35290.60
468.23	35021.44
468.41	35023.78
468.60	35489.54
468.78	35737.64
468.96	35393.58
469.14	35983.40
469.32	36112.13
469.50	34527.58
469.69	35147.82
469.87	34604.82
470.05	33977.56
470.23	34155.44
470.41	34314.59
470.59	34979.31
470.77	34916.11
470.95	36273.62
471.14	36116.81
471.32	36280.64
471.50	38066.47
471.68	38007.96
471.86	38349.68
472.04	39152.48
472.22	39082.27
472.40	37343.25
472.58	36634.06
472.77	36266.60
472.95	37378.36
473.13	38038.39
473.31	36847.05
473.49	36917.27
473.67	37640.50
473.85	38134.35
474.03	39019.07
474.21	39299.94
474.39	39538.67
474.57	39875.71
474.75	39421.64
474.93	39812.51
475.12	38618.84
475.30	38211.59
475.48	38834.17
475.66	39608.89
475.84	38679.69
476.02	38543.94
476.20	37818.38
476.38	38335.63
476.56	39714.21
476.74	40755.75
476.92	40140.19
477.10	41113.85
477.28	42309.86
477.46	42038.36
477.64	42508.81
477.82	42855.21
478.00	42700.73
478.18	42548.60
478.36	42422.21
478.54	42590.73
478.72	42422.21
478.90	43735.25
479.08	44516.99
479.26	45067.02
479.44	44626.99
479.62	44519.33
479.80	44247.83
479.98	44919.56
480.16	45010.84
480.34	44500.61
480.52	45116.17
480.70	45638.11
480.88	44947.65
481.06	46223.24
481.24	46560.28
481.41	47302.23
481.59	47700.12
481.77	47489.47
481.95	47054.13
482.13	46667.94
482.31	46728.80
482.49	47824.17
482.67	47023.70
482.85	47938.85
483.03	48123.75
483.21	48762.72
483.39	48135.46
483.57	47716.50
483.74	47657.99
483.92	47688.42
484.10	47641.60
484.28	48797.83
484.46	48994.43
484.64	49715.32
484.82	49066.99
485.00	48439.73
485.18	47793.74
485.35	46527.51
485.53	43484.81
485.71	40308.71
485.89	38895.02
486.07	40751.07
486.25	44332.09
486.43	46553.26
486.61	47323.29
486.78	47243.71
486.96	47732.89
487.14	49120.82
487.32	49989.16
487.50	50948.78
487.68	51562.00
487.85	52261.82
488.03	52460.77
488.21	51742.22
488.39	50946.44
488.57	50581.32
488.75	50148.32
488.92	51227.31
489.10	53368.90
489.28	54403.41
489.46	54876.20
489.64	54923.01
489.81	55269.41
489.99	54838.75
490.17	54677.25
490.35	55201.53
490.53	54810.67
490.70	54412.77
490.88	53986.80
491.06	55189.83
491.24	55220.26
491.41	54101.48
491.59	52926.53
491.77	51995.00
491.95	53022.50
492.13	54281.70
492.30	55344.31
492.48	56079.24
492.66	56598.83
492.84	56545.00
493.01	56151.79
493.19	55709.43
493.37	55590.06
493.54	55089.19
493.72	55634.53
493.90	56540.32
494.08	57537.39
494.25	57717.61
494.43	57937.62
494.61	58248.91
494.79	58382.32
494.96	57996.13
495.14	57481.22
495.32	56734.59
495.49	55901.36
495.67	57172.27
495.85	58396.37
496.02	58562.54
496.20	58438.50
496.38	58056.99
496.55	58024.22
496.73	58323.81
496.91	58522.76
497.09	59131.29
497.26	59269.39
497.44	58618.72
497.62	58422.11
497.79	57724.63
497.97	56453.72
498.14	56526.28
498.32	57528.03
498.50	58642.12
498.67	58939.37
498.85	58843.41
499.03	58988.52
499.20	59222.58
499.38	59138.32
499.56	59079.80
499.73	58562.54
499.91	58209.12
500.08	57764.42
500.26	57179.29
500.44	57682.50
500.61	58269.98
500.79	58157.63
500.97	57827.62
501.14	57525.69
501.32	57504.62
501.49	57333.76
501.67	57694.21
501.84	58150.61
502.02	58398.71
502.20	58726.38
502.37	58801.28
502.55	58834.05
502.72	59426.20
502.90	59767.92
503.07	59709.41
503.25	59138.32
503.43	58422.11
503.60	57853.36
503.78	57251.84
503.95	57663.78
504.13	58829.37
504.30	59625.15
504.48	59494.08
504.65	59119.59
504.83	59138.32
505.01	59653.23
505.18	60121.34
505.36	60636.26
505.53	60662.00
505.71	60846.91
505.88	60980.32
506.06	60327.31
506.23	60079.21
506.41	59496.42
506.58	60090.91
506.76	60055.81
506.93	59847.50
507.11	59634.51
507.28	59842.82
507.46	59320.88
507.63	58728.72
507.81	58489.99
507.98	58894.90
508.16	59657.91
508.33	60182.19
508.50	60301.56
508.68	60310.92
508.85	60919.46
509.03	61146.50
509.20	61013.08
509.38	60271.14
509.55	59522.16
509.73	59428.54
509.90	60083.89
510.08	60441.99
510.25	60198.58
510.42	59962.18
510.60	60128.36
510.77	60350.71
510.95	60699.45
511.12	60823.50
511.30	61207.35
511.47	61329.06
511.64	61371.19
511.82	60903.08
511.99	60341.35
512.17	59856.86
512.34	59667.28
512.51	59730.47
512.69	59655.57
512.86	60107.30
513.04	60294.54
513.21	60156.45
513.38	59866.22
513.56	59449.61
513.73	58925.33
513.90	59187.47
514.08	59032.99
514.25	59522.16
514.43	59594.72
514.60	59898.99
514.77	59901.33
514.95	60107.30
515.12	59877.93
515.29	60107.30
515.47	60530.93
515.64	60739.24
515.81	60577.75
515.99	59695.36
516.16	58773.19
516.33	56713.52
516.51	55128.98
516.68	54518.10
516.85	54108.50
517.03	54216.17
517.20	56704.16
517.37	58920.65
517.54	60123.68
517.72	59751.54
517.89	57312.70
518.06	55323.24
518.24	55295.16
518.41	57460.15
518.58	58604.67
518.75	59126.61
518.93	59168.74
519.10	59002.56
519.27	59536.21
519.45	59592.38
519.62	60390.50
519.79	60802.44
519.96	60481.78
520.14	60062.83
520.31	59320.88
520.48	59227.26
520.65	59409.82
520.83	60406.89
521.00	60896.06
521.17	60498.17
521.34	60027.72
521.52	60512.21
521.69	60814.14
521.86	61317.35
522.03	61008.40
522.20	60032.40
522.38	58878.52
522.55	58918.31
522.72	59561.95
522.89	59688.34
523.07	59901.33
523.24	59999.63
523.41	60910.10
523.58	61183.94
523.75	61528.00
523.92	61310.33
524.10	61336.08
524.27	61476.51
524.44	61226.07
524.61	61001.38
524.78	60811.80
524.96	60825.84
525.13	60865.63
525.30	61038.83
525.47	61598.22
525.64	61193.31
525.81	60694.77
525.98	59484.72
526.16	58052.31
526.33	57595.90
526.50	57179.29
526.67	56790.76
526.84	57261.21
527.01	58429.13
527.18	59002.56
527.36	59875.58
527.53	60615.19
527.70	60954.57
527.87	60308.58
528.04	59833.46
528.21	60505.19
528.38	60893.72
528.55	61818.23
528.72	61958.66
528.89	62010.15
529.07	61748.01
529.24	61085.64
529.41	60610.51
529.58	59863.88
529.75	59896.65
529.92	60446.68
530.09	60760.31
530.26	61577.15
530.43	61652.05
530.60	61574.81
530.77	61904.83
530.94	61886.10
531.11	61705.88
531.28	61109.05
531.46	61167.56
531.63	61235.44
531.80	61090.32
531.97	60832.86
532.14	60067.51
532.31	59002.56
532.48	58309.77
532.65	58295.72
532.82	59241.30
532.99	60388.16
533.16	60573.06
533.33	61137.13
533.50	60975.64
533.67	60348.37
533.84	59952.82
534.01	60210.28
534.18	60259.43
534.35	60566.04
534.52	60409.23
534.69	60566.04
534.86	60860.95
535.03	61106.71
535.20	61563.11
535.37	61780.78
535.54	61785.46
535.71	61647.37
535.88	61282.25
536.05	60823.50
536.22	60376.46
536.38	60172.83
536.55	59568.97
536.72	59166.40
536.89	59068.10
537.06	59985.59
537.23	60741.58
537.40	60821.16
537.57	61055.21
537.74	60727.54
537.91	60617.53
538.08	60671.37
538.25	60523.91
538.42	60872.65
538.59	60617.53
538.75	60037.08
538.92	59533.87
539.09	59765.58
539.26	59508.12
539.43	59311.52
539.60	59093.85
539.77	59604.08
539.94	59391.09
540.11	58988.52
540.28	58190.40
540.44	58244.23
540.61	58501.69
540.78	58864.47
540.95	59295.13
541.12	59824.09
541.29	59730.47
541.46	60121.34
541.62	60135.38
541.79	60179.85
541.96	59267.05
542.13	59330.24
542.30	59718.77
542.47	59819.41
542.63	59377.05
542.80	59449.61
542.97	59564.29
543.14	59494.08
543.31	59611.10
543.48	59884.95
543.64	60636.26
543.81	60996.70
543.98	60790.73
544.15	59877.93
544.32	59683.66
544.48	59618.13
544.65	59894.31
544.82	60388.16
544.99	59845.16
545.16	59728.13
545.32	59529.19
545.49	60219.64
545.66	60587.11
545.83	60355.39
546.00	59831.11
546.16	59526.84
546.33	59622.81
546.50	59585.36
546.67	60287.52
546.83	59653.23
547.00	59730.47
547.17	58960.44
547.34	58887.88
547.50	58672.55
547.67	58974.48
547.84	59210.87
548.00	59377.05
548.17	59756.22
548.34	59566.63
548.51	59622.81
548.67	59437.90
548.84	60004.31
549.01	59735.15
549.18	59576.00
549.34	59608.76
549.51	59650.89
549.68	59503.44
549.84	59306.83
550.01	59405.14
550.18	59035.33
550.34	59016.61
550.51	59346.62
550.68	59288.11
550.84	58880.86
551.01	59011.93
551.18	58855.11
551.34	59061.08
551.51	59519.82
551.68	59669.62
551.84	59739.83
552.01	59550.25
552.18	59573.66
552.34	58794.26
552.51	58454.88
552.68	58181.04
552.84	58724.04
553.01	58981.50
553.18	59028.31
553.34	59011.93
553.51	59037.67
553.67	59550.25
553.84	59618.13
554.01	59206.19
554.17	59105.55
554.34	59276.41
554.51	59412.16
554.67	59625.15
554.84	59667.28
555.00	58918.31
555.17	59112.57
555.33	59091.51
555.50	59011.93
555.67	58962.78
555.83	58915.96
556.00	58333.17
556.16	58382.32
556.33	58099.12
556.50	57949.32
556.66	58115.50
556.83	57794.85
556.99	57867.40
557.16	57970.39
557.32	58284.02
557.49	58508.71
557.65	58569.57
557.82	58569.57
557.98	58206.78
558.15	57783.15
558.32	56994.39
558.48	56271.16
558.65	56413.93
558.81	56828.21
558.98	56982.68
559.14	57312.70
559.31	57350.15
559.47	57420.36
559.64	57109.07
559.80	56491.17
559.97	56617.56
560.13	57247.16
560.30	58068.69
560.46	58822.34
560.63	58812.98
560.79	58770.85
560.96	58429.13
561.12	57296.31
561.29	56652.67
561.45	56519.26
561.61	57139.50
561.78	57495.26
561.94	57329.08
562.11	57499.94
562.27	57085.67
562.44	57752.72
562.60	57661.44
562.77	57918.90
562.93	57963.37
563.10	57827.62
563.26	57031.83
563.42	57305.68
563.59	57195.67
563.75	57162.90
563.92	57116.09
564.08	57069.28
564.24	57443.77
564.41	57333.76
564.57	57244.82
564.74	57205.03
564.90	56961.62
565.07	56879.70
565.23	56495.85
565.39	55901.36
565.56	55739.86
565.72	55707.09
565.88	55861.57
566.05	56013.70
566.21	56360.10
566.38	56399.89
566.54	56631.60
566.70	56830.55
566.87	57024.81
567.03	57200.35
567.19	57162.90
567.36	56802.46
567.52	56804.80
567.68	56743.95
567.85	56083.92
568.01	55519.85
568.17	55299.84
568.34	55473.04
568.50	55384.10
568.66	55449.63
568.83	56051.15
568.99	56156.47
569.15	56053.49
569.32	56147.11
569.48	55779.65
569.64	55714.11
569.81	55283.45
569.97	55356.01
570.13	55154.72
570.30	54784.92
570.46	54424.48
570.62	53839.34
570.78	53668.48
570.95	53979.78
571.11	54672.57
571.27	54738.11
571.43	54859.82
571.60	55423.89
571.76	55482.40
571.92	56023.06
572.09	55966.89
572.25	55941.14
572.41	55849.86
572.57	55606.45
572.74	55681.34
572.90	55304.52
573.06	55491.76
573.22	55442.61
573.38	55423.89
573.55	55477.72
573.71	55468.36
573.87	55306.86
574.03	55065.78
574.20	55079.83
574.36	55018.97
574.52	54789.60
574.68	54490.01
574.84	54237.23
575.01	54035.95
575.17	53902.54
575.33	53925.94
575.49	54340.22
575.65	54492.35
575.82	54106.16
575.98	53909.56
576.14	54204.47
576.30	54717.04
576.46	54724.07
576.62	54541.50
576.79	54478.31
576.95	54108.50
577.11	54293.41
577.27	54099.14
577.43	54534.48
577.59	53701.25
577.75	53481.24
577.92	53183.99
578.08	52839.93
578.24	52942.92
578.40	52952.28
578.56	53801.89
578.72	53439.11
578.88	53481.24
579.04	53745.72
579.21	54064.03
579.37	53954.03
579.53	54143.61
579.69	53998.50
579.85	53956.37
580.01	54028.93
580.17	53322.08
580.33	53450.81
580.49	53535.07
580.65	53691.89
580.82	54007.86
580.98	53991.48
581.14	53598.27
581.30	53628.69
581.46	53600.61
581.62	53881.47
581.78	54080.42
581.94	54014.88
582.10	54033.61
582.26	54281.70
582.42	53893.18
582.58	54167.02
582.74	53991.48
582.90	53998.50
583.06	54127.23
583.22	53841.68
583.38	53502.31
583.54	53497.62
583.70	53801.89
583.86	53448.47
584.02	53460.18
584.18	53581.88
584.34	53478.90
584.50	53553.80
584.66	53537.41
584.82	52762.70
584.98	52931.22
585.14	52706.52
585.30	51983.30
585.46	51510.51
585.62	51643.92
585.78	51676.69
585.94	51978.62
586.10	52243.10
586.26	52271.18
586.42	52739.29
586.58	52846.96
586.74	52919.51
586.90	53151.23
587.06	52502.90
587.22	52648.01
587.38	52250.12
587.54	51927.13
587.70	51875.63
587.86	51583.07
588.02	51140.71
588.18	51000.27
588.34	49986.82
588.49	48023.11
588.65	45797.26
588.81	45340.86
588.97	45991.53
589.13	46059.40
589.29	45476.61
589.45	47002.64
589.61	47892.04
589.77	49169.97
589.93	49607.65
590.08	49956.39
590.24	50714.73
590.40	51257.73
590.56	50768.56
590.72	50473.65
590.88	50279.39
591.04	49956.39
591.20	50010.23
591.35	49783.19
591.51	50288.75
591.67	49930.65
591.83	50403.44
591.99	49813.62
592.15	50323.86
592.31	50286.41
592.46	50286.41
592.62	49853.41
592.78	49521.05
592.94	49794.90
593.10	49787.88
593.26	50337.90
593.41	50483.01
593.57	50389.39
593.73	50188.11
593.89	49382.96
594.05	49146.57
594.20	48732.29
594.36	48577.82
594.52	48554.41
594.68	48203.33
594.84	48678.46
594.99	49432.11
595.15	49382.96
595.31	49579.57
595.47	49113.80
595.62	49347.86
595.78	49680.21
595.94	49958.73
596.10	49738.72
596.25	49846.39
596.41	49146.57
596.57	49052.95
596.73	49366.58
596.88	49434.45
597.04	49750.43
597.20	48861.02
597.36	48657.40
597.51	48676.12
597.67	49041.24
597.83	48350.79
597.99	48552.07
598.14	48264.19
598.30	48009.07
598.46	47657.99
598.61	48165.88
598.77	48116.73
598.93	48823.58
599.09	48814.21
599.24	48989.75
599.40	48626.97
599.56	48643.35
599.71	48615.27
599.87	49034.22
600.03	48437.39
600.18	47929.49
600.34	47924.81
600.50	47847.57
600.65	47477.77
600.81	48032.47
600.97	47901.40
601.12	47721.18
601.28	47917.79
601.44	47599.47
601.59	47229.67
601.75	46717.09
601.91	46672.62
602.06	46916.04
602.22	47426.28
602.37	47044.77
602.53	47423.93
602.69	48076.94
602.84	47980.98
603.00	48137.80
603.16	48184.61
603.31	48072.26
603.47	48311.00
603.62	47988.00
603.78	47859.27
603.94	47882.68
604.09	47742.25
604.25	47828.85
604.40	47466.06
604.56	47716.50
604.71	47980.98
604.87	47578.41
605.03	47468.40
605.18	46965.19
605.34	47140.73
605.49	46621.13
605.65	47428.62
605.80	46988.60
605.96	46859.87
606.12	46284.09
606.27	46366.01
606.43	46127.28
606.58	46689.01
606.74	47056.47
606.89	46698.37
607.05	46909.02
607.20	46981.57
607.36	46176.43
607.51	46377.72
607.67	46309.84
607.82	46059.40
607.98	45666.19
608.13	45645.13
608.29	44968.71
608.44	45504.70
608.60	44954.67
608.75	45212.13
608.91	45043.61
609.06	45249.58
609.22	45504.70
609.37	45263.62
609.53	45102.12
609.68	44744.02
609.84	44058.24
609.99	43819.51
610.15	44074.63
610.30	44481.88
610.46	44374.22
610.61	45628.74
610.76	45074.04
610.92	45745.77
611.07	45790.24
611.23	45556.19
611.38	45656.83
611.54	45020.20
611.69	44652.74
611.84	43852.28
612.00	43482.47
612.15	43662.69
612.31	43889.73
612.46	43620.56
612.62	44128.46
612.77	44069.95
612.92	44502.95
613.08	43290.55
613.23	42761.59
613.39	42536.90
613.54	42195.18
613.69	42607.11
613.85	42349.65
614.00	42433.91
614.15	43217.99
614.31	43086.92
614.46	43012.02
614.62	42895.00
614.77	43037.77
614.92	43335.02
615.08	42651.58
615.23	42625.84
615.38	42436.25
615.54	41738.77
615.69	41350.24
615.84	39821.87
616.00	39887.41
616.15	40318.07
616.30	40556.80
616.46	40549.78
616.61	40205.72
616.76	40940.65
616.92	40891.50
617.07	41584.30
617.22	41471.95
617.37	41338.54
617.53	41792.61
617.68	41984.53
617.83	41977.51
617.99	42356.67
618.14	42216.24
618.29	41631.11
618.45	41563.23
618.60	40741.71
618.75	40795.54
618.90	40863.41
619.06	41151.30
619.21	41230.88
619.36	41656.85
619.51	41481.31
619.67	40671.49
619.82	41256.62
619.97	41195.77
620.12	40935.97
620.28	41062.36
620.43	41226.20
620.58	41418.12
620.73	40921.93
620.89	41008.53
621.04	40346.15
621.19	39835.92
621.34	40084.01
621.49	39536.33
621.65	39831.24
621.80	39852.30
621.95	39810.17
622.10	40023.16
622.25	39882.73
622.41	39641.65
622.56	39445.05
622.71	38682.03
622.86	38520.54
623.01	38721.82
623.16	39122.05
623.32	38773.31
623.47	38766.29
623.62	38799.06
623.77	38424.57
623.92	38572.03
624.07	37273.03
624.23	37275.37
624.38	37518.79
624.53	37518.79
624.68	37893.27
624.83	37771.57
624.98	37322.18
625.13	36926.63
625.29	36720.66
625.44	37071.75
625.59	36982.80
625.74	37315.16
625.89	37713.05
626.04	37298.78
626.19	37448.57
626.34	37521.13
626.49	37357.29
626.65	37425.17
626.80	37617.09
626.95	37450.91
627.10	37006.21
627.25	36488.95
627.40	35435.71
627.55	34756.96
627.70	33689.67
627.85	34361.40
628.00	35044.84
628.15	35629.98
628.30	35882.75
628.45	35871.05
628.60	35576.14
628.76	35878.07
628.91	35711.89
629.06	35351.45
629.21	35550.40
629.36	34665.67
629.51	34569.71
629.66	34401.19
629.81	34366.09
629.96	34373.11
630.11	34934.84
630.26	35175.91
630.41	35454.44
630.56	35084.63
630.71	35264.85
630.86	35136.12
631.01	34871.64
631.16	34169.48
631.31	33926.07
631.46	33750.52
631.61	34300.55
631.76	33993.94
631.91	34614.18
632.06	34927.81
632.21	34682.06
632.36	34841.21
632.51	34775.68
632.66	35086.97
632.81	35028.46
632.96	34998.03
633.10	34382.47
633.25	34094.58
633.40	33422.85
633.55	34153.10
633.70	34096.92
633.85	34153.10
634.00	33893.30
634.15	34150.76
634.30	34026.71
634.45	34012.66
634.60	34178.84
634.75	34017.35
634.90	34183.52
635.05	34202.25
635.19	33654.56
635.34	34270.12
635.49	33874.57
635.64	33720.10
635.79	33254.33
635.94	33139.65
636.09	33439.23
636.24	33366.68
636.39	33457.96
636.53	33795.00
636.68	33507.11
636.83	33460.30
636.98	34040.75
637.13	33745.84
637.28	33851.17
637.43	33839.47
637.57	33890.96
637.72	33689.67
637.87	33476.68
638.02	33436.89
638.17	33785.63
638.32	33350.29
638.46	33446.26
638.61	33137.30
638.76	32802.61
638.91	32467.91
639.06	32233.86
639.20	32465.57
639.35	32341.52
639.50	32203.43
639.65	31716.60
639.80	31922.57
639.94	32084.06
640.09	32098.11
640.24	32177.68
640.39	32170.66
640.54	32130.87
640.68	31215.72
640.83	31562.12
640.98	31178.28
641.13	31014.44
641.27	31779.79
641.42	31955.33
641.57	31283.60
641.72	31110.40
641.86	30703.15
642.01	31197.00
642.16	32041.93
642.31	31468.50
642.45	32170.66
642.60	31536.38
642.75	31358.50
642.90	31220.41
643.04	31267.22
643.19	30796.77
643.34	31143.17
643.48	30703.15
643.63	30558.03
643.78	30899.75
643.93	31276.58
644.07	31658.09
644.22	31548.08
644.37	30796.77
644.51	31576.17
644.66	30237.38
644.81	30373.13
644.95	30312.28
645.10	29942.47
645.25	29865.24
645.39	29825.45
645.54	30047.80
645.69	29706.08
645.83	29230.95
645.98	28996.90
646.13	29717.78
646.27	29139.67
646.42	29235.63
646.57	29474.37
646.71	29214.57
646.86	28987.53
647.00	29205.20
647.15	28659.86
647.30	28158.99
647.44	28645.82
647.59	28875.19
647.74	28519.43
647.88	28531.13
648.03	28161.33
648.17	28147.28
648.32	28685.61
648.47	29095.20
648.61	28641.14
648.76	28617.73
648.90	27948.34
649.05	27026.17
649.20	26298.26
649.34	26359.11
649.49	26649.34
649.63	27372.57
649.78	27728.33
649.92	28194.09
650.07	28802.63
650.21	28573.26
650.36	28645.82
650.51	28276.01
650.65	28594.32
650.80	28741.78
650.94	28114.52
651.09	27857.06
651.23	27140.85
651.38	26927.86
651.52	26878.71
651.67	26738.28
651.81	27402.99
651.96	27653.43
652.10	27913.23
652.25	27594.92
652.39	27725.99
652.54	28070.04
652.68	27786.84
652.83	27789.18
652.97	27402.99
653.12	27222.77
653.26	27255.54
653.41	27833.65
653.55	28098.13
653.70	27693.22
653.84	27417.04
653.99	27246.18
654.13	27000.42
654.27	26403.58
654.42	26441.03
654.56	25940.16
654.71	26352.09
654.85	26300.60
655.00	25745.89
655.14	25537.59
655.29	25172.46
655.43	24805.00
655.57	23775.16
655.72	22518.29
655.86	20489.05
656.01	19604.33
656.15	19513.05
656.30	20718.42
656.44	22221.05
656.58	23140.88
656.73	23709.63
656.87	24215.18
657.01	24446.90
657.16	24570.94
657.30	25235.66
657.45	25893.35
657.59	25408.86
657.73	25797.38
657.88	25825.47
658.02	26106.34
658.16	25764.62
658.31	25752.91
658.45	25575.03
658.60	25947.18
658.74	25275.45
658.88	25249.70
659.03	24940.75
659.17	24734.78
659.31	25179.48
659.46	24898.62
659.60	25448.64
659.74	25385.45
659.89	25537.59
660.03	25551.63
660.17	25706.10
660.32	25312.89
660.46	25387.79
660.60	25085.86
660.74	25146.72
660.89	25029.69
661.03	25046.07
661.17	24989.90
661.32	25142.03
661.46	24985.22
661.60	24865.85
661.74	25151.40
661.89	25043.73
662.03	25015.65
662.17	24521.79
662.31	24755.85
662.46	25135.01
662.60	24680.95
662.74	24306.46
662.88	24229.23
663.03	24135.60
663.17	23924.96
663.31	23901.55
663.45	24049.00
663.60	24166.03
663.74	23681.54
663.88	23948.36
664.02	23627.71
664.17	24044.32
664.31	23985.81
664.45	23868.78
664.59	23948.36
664.73	24161.35
664.88	24053.69
665.02	23770.48
665.16	23555.15
665.30	24002.19
665.44	23702.61
665.59	23744.73
665.73	23412.38
665.87	23040.23
666.01	22773.41
666.15	22991.08
666.29	22899.80
666.44	23211.09
666.58	22408.29
666.72	22948.95
666.86	23173.64
667.00	23524.72
667.14	22745.33
667.28	22960.66
667.43	22583.83
667.57	22459.78
667.71	22469.14
667.85	22672.77
667.99	22534.68
668.13	22640.00
668.27	22429.35
668.41	22794.48
668.56	22408.29
668.70	22590.85
668.84	22445.74
668.98	22349.78
669.12	22263.18
669.26	22089.98
669.40	21766.98
669.54	21944.86
669.68	21888.69
669.82	21664.00
669.96	21795.07
670.10	21727.19
670.25	21685.06
670.39	21193.55
670.53	21291.85
670.67	21687.40
670.81	21282.49
670.95	21338.66
671.09	21144.40
671.23	20737.15
671.37	20959.50
671.51	20872.90
671.65	20877.58
671.79	20912.69
671.93	20875.24
672.07	21081.21
672.21	20842.47
672.35	20837.79
672.49	21050.78
672.63	20854.17
672.77	20657.57
672.91	20088.82
673.05	20711.40
673.19	20554.58
673.33	20430.54
673.47	20376.70
673.61	20203.50
673.75	20173.08
673.89	20320.53
674.03	20528.84
674.17	20074.77
674.31	19999.88
674.45	19969.45
674.59	19957.75
674.73	19873.49
674.87	19929.66
675.01	19356.23
675.15	19501.34
675.29	19676.88
675.43	19740.08
675.56	19552.84
675.70	19398.36
675.84	19749.44
675.98	18970.04
676.12	19103.45
676.26	19110.47
676.40	19087.07
676.54	19047.28
676.68	19154.94
676.82	18602.58
676.96	18644.71
677.10	18970.04
677.23	18703.22
677.37	18831.95
677.51	18569.81
677.65	18656.41
677.79	18427.04
677.93	18537.04
678.07	18302.99
678.21	18185.96
678.34	17982.34
678.48	17612.53
678.62	17724.88
678.76	17827.86
678.90	17678.07
679.04	17774.03
679.18	17701.47
679.31	17834.88
679.45	17556.36
679.59	17439.33
679.73	17509.55
679.87	17558.70
680.00	17298.90
680.14	17165.49
680.28	17256.77
680.42	16996.97
680.56	17090.59
680.70	16929.09
680.83	16938.46
680.97	16271.40
681.11	16748.87
681.25	16905.69
681.39	16751.21
681.52	16676.32
681.66	16652.91
681.80	16563.97
681.94	16634.19
682.07	16479.71
682.21	16507.80
682.35	16189.49
682.49	15906.28
682.62	15606.69
682.76	15534.14
682.90	15833.72
683.04	15957.77
683.17	15859.47
683.31	15737.76
683.45	15936.71
683.59	15421.79
683.72	15129.22
683.86	15269.66
684.00	14956.02
684.13	15328.17
684.27	15077.73
684.41	15033.26
684.55	15035.60
684.68	15073.05
684.82	15087.09
684.96	14775.80
685.09	14993.47
685.23	14869.42
685.37	14478.55
685.50	14443.45
685.64	14597.92
685.78	14443.45
685.91	14544.09
686.05	14150.88
686.19	13877.04
686.32	13046.15
686.46	11669.91
686.60	10310.06
686.73	9682.80
686.87	9151.49
687.01	8814.46
687.14	9062.55
687.28	9226.39
687.42	9818.55
687.55	10094.73
687.69	11049.67
687.82	11438.20
687.96	11709.70
688.10	11602.04
688.23	11627.78
688.37	11499.05
688.50	10972.43
688.64	11391.39
688.78	10860.09
688.91	10827.32
689.05	10892.85
689.18	10923.28
689.32	10878.81
689.46	10654.12
689.59	10782.85
689.73	11124.57
689.86	10754.76
690.00	11204.14
690.13	11236.91
690.27	11173.72
690.41	11150.31
690.54	11049.67
690.68	11108.18
690.81	11211.17
690.95	11199.46
691.08	11440.54
691.22	10897.53
691.35	11335.21
691.49	11206.48
691.62	11180.74
691.76	11204.14
691.89	11323.51
692.03	11194.78
692.16	10841.36
692.30	10993.50
692.43	10974.77
692.57	10803.91
692.70	10441.13
692.84	10583.90
692.97	10787.53
693.11	10293.68
693.24	10499.64
693.38	10586.24
693.51	10174.31
693.65	10310.06
693.78	10303.04
693.92	10200.05
694.05	10218.78
694.19	10026.86
694.32	10200.05
694.45	10139.20
694.59	10045.58
694.72	10139.20
694.86	9900.47
694.99	9806.84
695.13	9884.08
695.26	9944.94
695.39	9778.76
695.53	9727.27
695.66	9778.76
695.80	9844.29
695.93	9813.87
696.07	9902.81
696.20	9834.93
696.33	9851.31
696.47	9989.41
696.60	10286.65
696.73	10143.88
696.87	9942.60
697.00	10134.52
697.14	9958.98
697.27	9844.29
697.40	9708.54
697.54	9373.85
697.67	9390.23
697.80	9324.69
697.94	9188.94
698.07	9217.03
698.21	9090.64
698.34	9001.70
698.47	9088.30
698.61	8807.44
698.74	8798.07
698.87	8851.91
699.01	8615.51
699.14	8805.10
699.27	8718.50
699.40	8823.82
699.54	8802.75
699.67	8711.47
699.80	8599.13
699.94	8557.00
700.07	8315.92
700.20	8318.26
700.34	8114.64
700.47	7943.78
700.60	8086.55
700.73	8131.02
700.87	8135.70
701.00	8035.06
701.13	7899.31
701.26	7875.90
701.40	7983.57
701.53	7772.92
701.66	7939.10
701.79	7801.01
701.93	8032.72
702.06	7721.43
702.19	7683.98
702.32	7604.40
702.46	7496.74
702.59	7562.27
702.72	7442.90
702.85	7639.51
702.99	7655.89
703.12	7667.60
703.25	7543.55
703.38	7688.66
703.51	7442.90
703.65	7372.69
703.78	7363.33
703.91	7396.09
704.04	7276.73
704.17	7398.43
704.31	7442.90
704.44	7363.33
704.57	7377.37
704.70	7452.27
704.83	7405.46
704.96	7236.94
705.10	7087.14
705.23	7054.37
>>>>>End Processed Spectral Data<<<<<
