SpectraSuite Data File
++++++++++++++++++++++++++++++++++++
Date: Mon Oct 07 14:55:02 GMT-05:00 2013
User: price-jones
Dark Spectrum Present: No
Reference Spectrum Present: No
Number of Sampled Component Spectra: 1
Spectrometers: USB2+H05261
Integration Time (usec): 10000 (USB2+H05261)
Spectra Averaged: 1 (USB2+H05261)
Boxcar Smoothing: 0 (USB2+H05261)
Correct for Electrical Dark: No (USB2+H05261)
Strobe/Lamp Enabled: No (USB2+H05261)
Correct for Detector Non-linearity: No (USB2+H05261)
Correct for Stray Light: No (USB2+H05261)
Number of Pixels in Processed Spectrum: 2048
>>>>>Begin Processed Spectral Data<<<<<
365.73	0.00
365.92	0.00
366.12	0.00
366.32	0.00
366.52	0.00
366.72	0.00
366.91	0.00
367.11	0.00
367.31	0.00
367.51	0.00
367.70	0.00
367.90	0.00
368.10	0.00
368.30	0.00
368.49	0.00
368.69	0.00
368.89	0.00
369.09	0.00
369.28	0.00
369.48	0.00
369.68	0.00
369.87	0.00
370.07	0.00
370.27	0.00
370.47	440.02
370.66	2555.86
370.86	3126.96
371.06	3143.34
371.25	3239.30
371.45	2810.98
371.65	2569.91
371.84	2558.21
372.04	2813.32
372.24	3101.21
372.44	3155.04
372.63	2977.16
372.83	2752.47
373.03	2424.80
373.22	2361.60
373.42	2359.26
373.62	2834.39
373.81	3030.99
374.01	2909.29
374.21	2605.02
374.40	2462.24
374.60	2780.56
374.79	3063.76
374.99	3606.77
375.19	3791.67
375.38	3522.51
375.58	3496.76
375.78	3520.17
375.97	3613.79
376.17	3602.08
376.37	3644.21
376.56	3796.35
376.76	4166.15
376.95	4374.46
377.15	4559.36
377.35	4732.56
377.54	5083.64
377.74	5027.47
377.93	4975.98
378.13	4774.69
378.33	4444.68
378.52	4292.54
378.72	4121.68
378.91	4044.45
379.11	3819.75
379.31	3768.26
379.50	3810.39
379.70	4140.41
379.89	4566.39
380.09	4809.80
380.28	4994.70
380.48	4777.03
380.68	4751.29
380.87	4704.48
381.07	4264.46
381.26	3997.64
381.46	3791.67
381.65	3571.66
381.85	3503.78
382.04	3232.28
382.24	3016.95
382.43	3075.46
382.63	2953.76
382.83	2923.33
383.02	3016.95
383.22	2839.07
383.41	3005.25
383.61	3246.32
383.80	3779.97
384.00	4484.47
384.19	4840.23
384.39	4802.78
384.58	4861.29
384.78	4601.49
384.97	4685.75
385.17	4344.03
385.36	4194.24
385.56	4259.78
385.75	4278.50
385.95	4833.21
386.14	5146.84
386.34	5153.86
386.53	4786.40
386.72	4456.38
386.92	4550.00
387.11	5008.75
387.31	5050.88
387.50	5032.15
387.70	4943.21
387.89	4896.40
388.09	4971.30
388.28	5046.20
388.48	5046.20
388.67	5327.06
388.86	6043.26
389.06	6296.04
389.25	6572.22
389.45	6878.83
389.64	6471.58
389.84	6471.58
390.03	6466.90
390.22	6740.74
390.42	6925.65
390.61	7314.17
390.81	7660.57
391.00	7695.68
391.19	7817.39
391.39	7454.61
391.58	7035.65
391.78	6600.31
391.97	6356.90
392.16	6040.92
392.36	5184.29
392.55	4049.13
392.75	3197.17
392.94	2764.17
393.13	3012.27
393.33	3623.15
393.52	4585.11
393.71	5364.51
393.91	6171.99
394.10	6764.15
394.29	7433.54
394.49	7777.60
394.68	8053.78
394.88	8418.91
395.07	8496.14
395.26	8297.20
395.46	8018.68
395.65	7468.65
395.84	6392.00
396.04	5266.21
396.23	4241.05
396.42	3702.73
396.62	3831.46
396.81	4634.26
397.00	5973.05
397.19	7412.48
397.39	8908.08
397.58	9888.76
397.77	10019.83
397.97	10441.13
398.16	10686.89
398.35	10911.58
398.55	11435.86
398.74	11770.55
398.93	11939.07
399.12	11604.38
399.32	11103.50
399.51	11522.46
399.70	12666.98
399.90	12081.85
400.09	12226.96
400.28	12053.76
400.47	12491.44
400.67	13064.87
400.86	13212.32
401.05	13282.54
401.24	13116.36
401.44	13193.60
401.63	13570.43
401.82	13642.98
402.01	13579.79
402.21	13727.24
402.40	13870.01
402.59	13465.10
402.78	12669.32
402.97	12498.46
403.17	13462.76
403.36	13991.72
403.55	13973.00
403.74	14520.68
403.93	13617.24
404.13	12603.78
404.32	12587.40
404.51	13156.15
404.70	13958.96
404.89	13776.39
405.09	13661.71
405.28	13263.82
405.47	13521.27
405.66	13523.62
405.85	12968.91
406.05	12706.77
406.24	13277.86
406.43	13549.36
406.62	13788.10
406.81	13879.38
407.00	13724.90
407.20	13160.83
407.39	13570.43
407.58	14361.53
407.77	14689.20
407.96	15206.46
408.15	15690.95
408.34	15702.65
408.54	16173.10
408.73	16194.17
408.92	15669.89
409.11	14967.73
409.30	14501.96
409.49	13523.62
409.68	12760.60
409.87	12767.62
410.07	13682.77
410.26	14534.73
410.45	15098.80
410.64	15754.15
410.83	16273.74
411.02	16599.08
411.21	17104.64
411.40	16910.37
411.59	17249.75
411.78	17226.34
411.98	16872.92
412.17	17118.68
412.36	16999.31
412.55	16709.08
412.74	16369.71
412.93	16259.70
413.12	16606.10
413.31	18312.35
413.50	18515.98
413.69	18354.48
413.88	17530.61
414.07	17329.33
414.26	17806.80
414.45	18174.26
414.64	18164.90
414.83	17591.47
415.02	17514.23
415.22	17886.37
415.41	18160.22
415.60	18813.23
415.79	19295.38
415.98	19674.54
416.17	19365.59
416.36	18911.53
416.55	18934.93
416.74	17921.48
416.93	17958.93
417.12	18281.92
417.31	18338.10
417.50	18611.94
417.69	19183.03
417.88	18930.25
418.07	18651.73
418.26	18740.67
418.45	19016.85
418.64	19459.21
418.83	20519.48
419.02	19721.35
419.21	19583.26
419.39	18754.71
419.58	18232.77
419.77	18122.77
419.96	19307.08
420.15	20278.40
420.34	21130.36
420.53	21149.08
420.72	21706.13
420.91	21362.07
421.10	21193.55
421.29	20620.12
421.48	20034.99
421.67	21207.59
421.86	20365.00
422.05	18920.89
422.24	17156.13
422.43	17991.70
422.61	19999.88
422.80	20688.00
422.99	19866.47
423.18	19433.47
423.37	19400.70
423.56	19517.73
423.75	20217.55
423.94	20592.03
424.13	19440.49
424.32	19339.85
424.50	19049.62
424.69	19604.33
424.88	19908.60
425.07	19447.51
425.26	19573.90
425.45	18574.49
425.64	19089.41
425.83	19087.07
426.01	19878.17
426.20	20170.74
426.39	19962.43
426.58	18565.13
426.77	17249.75
426.96	17167.83
427.15	17771.69
427.33	19143.24
427.52	19761.14
427.71	19838.38
427.90	19651.14
428.09	19112.81
428.28	18373.21
428.46	17841.90
428.65	17867.65
428.84	18822.59
429.03	18642.37
429.22	17394.86
429.40	16374.39
429.59	14796.87
429.78	13481.49
429.97	13767.03
430.16	13392.55
430.34	13444.04
430.53	14162.58
430.72	14548.77
430.91	16444.60
431.10	19353.89
431.28	22176.58
431.47	23992.83
431.66	23346.84
431.85	20709.06
432.03	19171.33
432.22	19218.14
432.41	20540.54
432.60	22354.46
432.79	22829.59
432.97	23229.82
433.16	22370.84
433.35	20049.03
433.54	17767.01
433.72	17855.95
433.91	18665.77
434.10	21095.25
434.28	22494.89
434.47	23271.95
434.66	22104.02
434.85	21799.75
435.03	22239.77
435.22	22377.86
435.41	24046.66
435.59	24269.01
435.78	24346.25
435.97	24692.65
436.16	24650.52
436.34	24357.96
436.53	24030.28
436.72	24163.69
436.90	22675.11
437.09	22574.47
437.28	22656.39
437.46	23524.72
437.65	22698.52
437.84	21071.84
438.02	20250.32
438.21	20247.97
438.40	21242.70
438.58	22759.37
438.77	23215.77
438.96	23513.02
439.14	24659.88
439.33	25163.10
439.52	25092.88
439.70	24353.27
439.89	23679.20
440.08	22960.66
440.26	23693.24
440.45	24428.17
440.63	26277.19
440.82	27402.99
441.01	26551.04
441.19	26480.82
441.38	27770.46
441.57	28364.95
441.75	27936.63
441.94	28486.66
442.12	28095.79
442.31	28957.11
442.50	28978.17
442.68	28627.09
442.87	28343.89
443.05	27826.63
443.24	28769.86
443.43	28954.77
443.61	29191.16
443.80	29649.91
443.98	28477.30
444.17	27922.59
444.35	29617.14
444.54	30401.22
444.73	29855.87
444.91	28322.82
445.10	26808.50
445.28	26462.10
445.47	26181.23
445.65	26321.66
445.84	27473.21
446.02	27957.70
446.21	28554.54
446.39	28376.66
446.58	28947.75
446.77	29497.77
446.95	29352.66
447.14	30242.06
447.32	31072.95
447.51	30174.19
447.69	28905.62
447.88	28744.12
448.06	29556.28
448.25	29666.29
448.43	29504.79
448.62	29347.98
448.80	28744.12
448.99	29181.80
449.17	29652.25
449.36	30274.83
449.54	31096.36
449.73	31384.24
449.91	31543.40
450.10	32287.69
450.28	32620.05
450.46	32594.30
450.65	32893.89
450.83	32137.90
451.02	31620.64
451.20	31889.80
451.39	31749.37
451.57	32051.30
451.76	31662.77
451.94	30752.30
452.13	30403.56
452.31	28849.44
452.49	27761.09
452.68	28503.04
452.86	28657.52
453.05	29013.28
453.23	30551.01
453.42	30710.17
453.60	31686.17
453.78	31608.93
453.97	30747.62
454.15	30595.48
454.34	29589.05
454.52	29507.13
454.70	29968.22
454.89	30347.39
455.07	30710.17
455.26	31035.50
455.44	31541.06
455.62	32589.62
455.81	32163.64
455.99	32493.66
456.17	32950.06
456.36	33319.87
456.54	33600.73
456.73	32465.57
456.91	33490.73
457.09	33331.57
457.28	34876.32
457.46	32950.06
457.64	32332.16
457.83	32081.72
458.01	31538.72
458.19	32521.74
458.38	33305.82
458.56	33670.95
458.74	33202.84
458.93	32713.67
459.11	32203.43
459.29	31627.66
459.48	32580.26
459.66	32182.37
459.84	32339.18
460.03	33064.75
460.21	33757.55
460.39	34101.61
460.57	33720.10
460.76	33809.04
460.94	33928.41
461.12	34387.15
461.31	34295.87
461.49	34866.96
461.67	34169.48
461.85	35115.06
462.04	34976.97
462.22	34675.04
462.40	34983.99
462.59	34412.90
462.77	34693.76
462.95	34462.05
463.13	34295.87
463.32	33827.76
463.50	33682.65
463.68	33975.22
463.86	34366.09
464.05	33083.47
464.23	32414.08
464.41	32601.32
464.59	32299.39
464.78	33340.93
464.96	33858.19
465.14	33097.52
465.32	34305.23
465.50	35370.18
465.69	35934.24
465.87	34642.27
466.05	33104.54
466.23	31779.79
466.41	31632.34
466.60	32889.21
466.78	32545.15
466.96	33254.33
467.14	34080.54
467.32	33617.11
467.51	34338.00
467.69	32369.61
467.87	33514.13
468.05	33729.46
468.23	33844.15
468.41	33654.56
468.60	34066.50
468.78	34562.69
468.96	34230.33
469.14	34693.76
469.32	34763.98
469.50	32758.14
469.69	33631.16
469.87	33130.28
470.05	32472.59
470.23	32811.97
470.41	33378.38
470.59	33663.93
470.77	33464.98
470.95	34373.11
471.14	34534.60
471.32	35143.14
471.50	36872.80
471.68	37205.16
471.86	37036.64
472.04	37134.94
472.22	36954.72
472.40	35761.05
472.58	35332.73
472.77	35159.53
472.95	35674.45
473.13	36818.97
473.31	34937.18
473.49	35234.42
473.67	36184.68
473.85	37413.46
474.03	38490.11
474.21	38710.12
474.39	38637.56
474.57	38155.41
474.75	38398.83
474.93	38234.99
475.12	36840.03
475.30	37560.92
475.48	36875.14
475.66	36877.48
475.84	36507.68
476.02	36800.24
476.20	36484.27
476.38	37832.42
476.56	38473.73
476.74	39367.81
476.92	39562.08
477.10	39669.74
477.28	40708.94
477.46	40872.78
477.64	41193.43
477.82	41663.88
478.00	41729.41
478.18	40191.68
478.36	39742.30
478.54	40914.90
478.72	41074.06
478.90	42988.62
479.08	44715.93
479.26	44170.59
479.44	44203.36
479.62	43047.13
479.80	44135.48
479.98	44058.24
480.16	44425.71
480.34	43789.08
480.52	44608.27
480.70	44844.66
480.88	44729.98
481.06	45113.83
481.24	45244.90
481.41	46714.75
481.59	47391.17
481.77	45855.78
481.95	45797.26
482.13	45275.32
482.31	46052.38
482.49	46555.60
482.67	45818.33
482.85	46162.39
483.03	46333.24
483.21	47545.64
483.39	46899.65
483.57	46747.52
483.74	46579.00
483.92	47611.18
484.10	46878.59
484.28	47512.88
484.46	47000.30
484.64	49106.78
484.82	48006.73
485.00	47484.79
485.18	46571.98
485.35	44158.89
485.53	39449.73
485.71	37001.53
485.89	37691.99
486.07	40444.46
486.25	43196.93
486.43	45521.08
486.61	45762.15
486.78	45497.67
486.96	46806.03
487.14	48402.28
487.32	48641.01
487.50	49572.55
487.68	50866.86
487.85	51840.53
488.03	50798.99
488.21	50494.72
488.39	49947.03
488.57	49146.57
488.75	48488.88
488.92	50642.17
489.10	52397.57
489.28	53216.76
489.46	54223.19
489.64	54403.41
489.81	54670.23
489.99	53509.33
490.17	53710.61
490.35	54096.80
490.53	53331.45
490.70	53104.41
490.88	52973.34
491.06	54195.10
491.24	54616.40
491.41	53319.74
491.59	51728.18
491.77	51835.84
491.95	52931.22
492.13	54408.09
492.30	54777.90
492.48	55484.74
492.66	55861.57
492.84	55458.99
493.01	55065.78
493.19	54866.84
493.37	54511.08
493.54	54904.29
493.72	55899.01
493.90	56217.33
494.08	56383.51
494.25	56786.08
494.43	56989.70
494.61	57638.03
494.79	57558.45
494.96	57841.66
495.14	57483.56
495.32	56107.32
495.49	56224.35
495.67	57176.95
495.85	58042.95
496.02	58745.11
496.20	58293.38
496.38	57738.68
496.55	57729.31
496.73	58384.66
496.91	58665.53
497.09	58412.75
497.26	58660.85
497.44	58279.34
497.62	57436.75
497.79	56690.12
497.97	55824.12
498.14	56479.47
498.32	57909.53
498.50	57806.55
498.67	57808.89
498.85	58262.96
499.03	58789.58
499.20	59037.67
499.38	58417.43
499.56	57834.64
499.73	57752.72
499.91	57511.64
500.08	56823.53
500.26	56498.19
500.44	57244.82
500.61	57659.10
500.79	57373.55
500.97	57656.76
501.14	56570.75
501.32	56498.19
501.49	56509.89
501.67	56914.81
501.84	57275.25
502.02	57757.40
502.20	58595.31
502.37	58735.74
502.55	58532.12
502.72	59098.53
502.90	59639.19
503.07	59332.58
503.25	58150.61
503.43	57172.27
503.60	56963.96
503.78	56863.32
503.95	57169.93
504.13	58487.65
504.30	58777.87
504.48	58326.15
504.65	58389.34
504.83	58607.01
505.01	59199.17
505.18	59611.10
505.36	59831.11
505.53	59910.69
505.71	60023.04
505.88	60172.83
506.06	59767.92
506.23	59264.70
506.41	59068.10
506.58	59489.40
506.76	59419.18
506.93	58859.79
507.11	59032.99
507.28	59091.51
507.46	58433.81
507.63	58534.46
507.81	57726.97
507.98	58656.17
508.16	59611.10
508.33	59484.72
508.50	59742.17
508.68	60331.99
508.85	60376.46
509.03	60793.07
509.20	60097.94
509.38	58969.80
509.55	58976.82
509.73	59112.57
509.90	59468.33
510.08	59744.51
510.25	59058.74
510.42	59007.25
510.60	59739.83
510.77	59859.20
510.95	59992.61
511.12	60278.16
511.30	60814.14
511.47	61080.96
511.64	60975.64
511.82	61001.38
511.99	59744.51
512.17	60018.36
512.34	59241.30
512.51	59461.31
512.69	59812.39
512.86	59643.87
513.04	59957.50
513.21	59475.35
513.38	58742.77
513.56	58377.64
513.73	57958.69
513.90	58710.00
514.08	58866.81
514.25	58405.73
514.43	59032.99
514.60	59395.77
514.77	59454.29
514.95	59700.04
515.12	59543.23
515.29	60135.38
515.47	60573.06
515.64	60184.54
515.81	59973.89
515.99	58810.64
516.16	57420.36
516.33	54850.45
516.51	54817.69
516.68	53176.97
516.85	52486.51
517.03	54724.07
517.20	57282.27
517.37	58944.05
517.54	59835.80
517.72	58120.18
517.89	55393.46
518.06	54328.52
518.24	55561.98
518.41	57474.20
518.58	58389.34
518.75	58452.54
518.93	58475.94
519.10	57872.09
519.27	59093.85
519.45	59381.73
519.62	59941.12
519.79	60074.53
519.96	59451.95
520.14	59150.02
520.31	57958.69
520.48	58569.57
520.65	59473.01
520.83	60200.92
521.00	60135.38
521.17	59552.59
521.34	59707.07
521.52	60062.83
521.69	60257.09
521.86	60493.49
522.03	60535.62
522.20	58782.55
522.38	58611.70
522.55	58770.85
522.72	59320.88
522.89	58733.40
523.07	59657.91
523.24	59838.14
523.41	60954.57
523.58	61291.61
523.75	61134.79
523.92	61153.52
524.10	60643.28
524.27	60439.65
524.44	60250.07
524.61	59999.63
524.78	60392.84
524.96	60214.96
525.13	60282.84
525.30	60837.54
525.47	60985.00
525.64	60942.87
525.81	60093.25
525.98	58375.30
526.16	57111.41
526.33	57284.61
526.50	56868.00
526.67	56821.19
526.84	57403.98
527.01	58305.09
527.18	58773.19
527.36	59667.28
527.53	60528.59
527.70	59903.67
527.87	58506.37
528.04	59913.03
528.21	60334.33
528.38	60891.38
528.55	61542.05
528.72	61324.38
528.89	60781.37
529.07	60659.66
529.24	59615.79
529.41	59592.38
529.58	59482.37
529.75	60353.05
529.92	60669.03
530.09	60519.23
530.26	60802.44
530.43	61733.97
530.60	60633.92
530.77	61148.84
530.94	61399.27
531.11	60601.15
531.28	60617.53
531.46	61043.51
531.63	60870.31
531.80	60224.32
531.97	59732.81
532.14	59746.86
532.31	58319.13
532.48	57757.40
532.65	57911.88
532.82	58714.68
532.99	60357.74
533.16	60374.12
533.33	60240.71
533.50	60640.94
533.67	60456.04
533.84	59545.57
534.01	59922.40
534.18	60207.94
534.35	59906.01
534.52	59372.37
534.69	59952.82
534.86	60507.53
535.03	60755.63
535.20	60568.38
535.37	61406.30
535.54	61371.19
535.71	61385.23
535.88	61441.40
536.05	60282.84
536.22	59627.49
536.38	59440.24
536.55	58415.09
536.72	58319.13
536.89	59128.95
537.06	58908.94
537.23	59735.15
537.40	59941.12
537.57	59480.03
537.74	60027.72
537.91	60083.89
538.08	59957.50
538.25	59849.84
538.42	60638.60
538.59	59749.20
538.75	59180.45
538.92	58646.80
539.09	58918.31
539.26	58969.80
539.43	58761.49
539.60	59040.01
539.77	59604.08
539.94	59199.17
540.11	58394.03
540.28	58078.05
540.44	57607.61
540.61	57844.00
540.78	58269.98
540.95	59222.58
541.12	59157.04
541.29	59618.13
541.46	59920.05
541.62	59980.91
541.79	59267.05
541.96	58642.12
542.13	58607.01
542.30	58714.68
542.47	59213.21
542.63	59044.69
542.80	59042.35
542.97	58471.26
543.14	58312.11
543.31	58412.75
543.48	59758.56
543.64	59709.41
543.81	60842.23
543.98	60622.22
544.15	59023.63
544.32	59833.46
544.48	59194.49
544.65	59297.47
544.82	59636.85
544.99	58375.30
545.16	57904.85
545.32	58487.65
545.49	59054.06
545.66	59145.34
545.83	59075.12
546.00	59463.65
546.16	59585.36
546.33	59035.33
546.50	59332.58
546.67	59751.54
546.83	58794.26
547.00	59620.47
547.17	58391.68
547.34	57296.31
547.50	57785.49
547.67	58581.27
547.84	59374.71
548.00	59414.50
548.17	58911.28
548.34	59374.71
548.51	59421.52
548.67	59587.70
548.84	59470.67
549.01	59566.63
549.18	58944.05
549.34	59222.58
549.51	59257.68
549.68	59299.81
549.84	58733.40
550.01	58312.11
550.18	57893.15
550.34	58382.32
550.51	58733.40
550.68	59098.53
550.84	58777.87
551.01	58171.67
551.18	57949.32
551.34	57745.70
551.51	59077.46
551.68	58752.13
551.84	58768.51
552.01	58880.86
552.18	58349.56
552.34	57612.29
552.51	57499.94
552.68	57567.82
552.84	57733.99
553.01	57755.06
553.18	58866.81
553.34	58843.41
553.51	59004.91
553.67	58508.71
553.84	58199.76
554.01	58623.40
554.17	57954.00
554.34	58387.00
554.51	58548.50
554.67	57682.50
554.84	58019.54
555.00	57759.74
555.17	58012.52
555.33	57609.95
555.50	57249.50
555.67	58166.99
555.83	57958.69
556.00	57506.96
556.16	57633.35
556.33	57237.80
556.50	57602.92
556.66	57577.18
556.83	57151.20
556.99	56797.78
557.16	57209.71
557.32	57095.03
557.49	57378.23
557.65	56844.59
557.82	57467.17
557.98	57794.85
558.15	56781.40
558.32	56002.00
558.48	55379.42
558.65	55594.74
558.81	56191.58
558.98	56921.83
559.14	56879.70
559.31	56708.84
559.47	56294.56
559.64	56016.04
559.80	55700.07
559.97	56346.06
560.13	57282.27
560.30	58176.36
560.46	58468.92
560.63	58707.66
560.79	58569.57
560.96	57668.46
561.12	56435.00
561.29	56147.11
561.45	55854.54
561.61	57394.62
561.78	56825.87
561.94	57186.31
562.11	57104.39
562.27	56521.60
562.44	57006.09
562.60	57574.84
562.77	57635.69
562.93	56439.68
563.10	56669.05
563.26	56687.78
563.42	57268.23
563.59	56451.38
563.75	56280.52
563.92	56287.54
564.08	55716.45
564.24	56605.86
564.41	56271.16
564.57	56893.74
564.74	56542.66
564.90	55702.41
565.07	56104.98
565.23	55140.68
565.39	54518.10
565.56	55063.44
565.72	55398.14
565.88	54181.06
566.05	56100.30
566.21	56580.11
566.38	56109.66
566.54	56044.13
566.70	56650.33
566.87	56224.35
567.03	55966.89
567.19	56940.55
567.36	57228.44
567.52	56053.49
567.68	55522.19
567.85	54843.43
568.01	55072.81
568.17	55285.79
568.34	55569.00
568.50	55356.01
568.66	55238.98
568.83	54780.24
568.99	54681.94
569.15	54906.63
569.32	54939.39
569.48	54897.27
569.64	54735.77
569.81	54574.27
569.97	54110.85
570.13	53787.85
570.30	53263.57
570.46	52750.99
570.62	52041.81
570.78	52252.46
570.95	53476.56
571.11	53570.18
571.27	52811.85
571.43	53319.74
571.60	52896.11
571.76	54525.12
571.92	54691.30
572.09	54930.03
572.25	54749.81
572.41	55306.86
572.57	54939.39
572.74	55121.96
572.90	56196.26
573.06	55194.51
573.22	55281.11
573.38	55037.70
573.55	56388.19
573.71	54773.22
573.87	54894.92
574.03	55040.04
574.20	54520.44
574.36	54728.75
574.52	53972.75
574.68	53750.40
574.84	53165.27
575.01	53006.11
575.17	53446.13
575.33	53785.51
575.49	53998.50
575.65	53010.79
575.82	53378.26
575.98	53010.79
576.14	54092.12
576.30	54810.67
576.46	53244.85
576.62	53525.71
576.79	53738.70
576.95	53677.85
577.11	54192.76
577.27	53860.41
577.43	54122.55
577.59	53141.86
577.75	52048.83
577.92	52144.80
578.08	52168.20
578.24	52938.24
578.40	52818.87
578.56	52076.92
578.72	52470.13
578.88	52224.37
579.04	52795.46
579.21	52161.18
579.37	52715.89
579.53	53202.72
579.69	52425.66
579.85	52231.40
580.01	52465.45
580.17	51943.51
580.33	52809.51
580.49	53633.38
580.65	51395.82
580.82	52325.02
580.98	53198.04
581.14	53043.56
581.30	52725.25
581.46	52533.32
581.62	52863.34
581.78	53542.10
581.94	53361.87
582.10	53656.78
582.26	53656.78
582.42	53441.45
582.58	52083.94
582.74	52233.74
582.90	52498.22
583.06	52648.01
583.22	52959.30
583.38	52884.40
583.54	53036.54
583.70	53439.11
583.86	53214.42
584.02	52678.44
584.18	52240.76
584.34	51716.48
584.50	51494.13
584.66	51868.61
584.82	51980.96
584.98	52065.22
585.14	51601.79
585.30	51641.58
585.46	51217.94
585.62	52025.43
585.78	52088.62
585.94	50822.39
586.10	51082.19
586.26	50255.98
586.42	51110.28
586.58	51016.66
586.74	51735.20
586.90	52231.40
587.06	52027.77
587.22	52570.77
587.38	52601.20
587.54	51224.96
587.70	51231.99
587.86	51325.61
588.02	51515.19
588.18	50892.61
588.34	48423.34
588.49	46066.42
588.65	44914.88
588.81	44257.19
588.97	42803.72
589.13	42913.72
589.29	45219.15
589.45	45769.18
589.61	46440.91
589.77	48708.89
589.93	50270.03
590.08	50021.93
590.24	50143.64
590.40	50099.17
590.56	49462.54
590.72	49198.06
590.88	48488.88
591.04	49876.82
591.20	48582.50
591.35	48954.64
591.51	48210.35
591.67	47842.89
591.83	48186.95
591.99	49336.15
592.15	49495.31
592.31	49324.45
592.46	49560.84
592.62	50106.19
592.78	50391.73
592.94	47899.06
593.10	48474.84
593.26	50527.48
593.41	49429.77
593.57	48746.34
593.73	48507.60
593.89	48425.68
594.05	48711.23
594.20	47887.36
594.36	46260.69
594.52	47224.99
594.68	46829.44
594.84	47657.99
594.99	49579.57
595.15	47955.24
595.31	47770.33
595.47	48406.96
595.62	49944.69
595.78	48252.48
595.94	48839.96
596.10	48535.69
596.25	48453.77
596.41	48182.27
596.57	48662.08
596.73	48116.73
596.88	48023.11
597.04	48949.96
597.20	48832.94
597.36	47800.76
597.51	48708.89
597.67	47182.86
597.83	47016.68
597.99	47349.04
598.14	46061.74
598.30	46724.11
598.46	46696.03
598.61	47903.74
598.77	46873.91
598.93	46801.35
599.09	45996.21
599.24	46855.18
599.40	47138.39
599.56	47126.69
599.71	47641.60
599.87	47878.00
600.03	47639.26
600.18	47189.88
600.34	45972.80
600.50	47508.19
600.65	46763.90
600.81	47131.37
600.97	45921.31
601.12	46150.68
601.28	46841.14
601.44	45525.76
601.59	46705.39
601.75	46731.14
601.91	46160.05
602.06	46244.30
602.22	46197.49
602.37	46485.38
602.53	47098.60
602.69	47405.21
602.84	46307.50
603.00	46600.07
603.16	47475.43
603.31	47154.77
603.47	46759.22
603.62	48692.50
603.78	47903.74
603.94	46742.84
604.09	47966.94
604.25	46726.46
604.40	46586.02
604.56	45771.52
604.71	45748.11
604.87	44809.56
605.03	44711.25
605.18	44699.55
605.34	44486.56
605.49	44713.59
605.65	44797.85
605.80	45242.56
605.96	45366.60
606.12	45610.02
606.27	45600.66
606.43	42602.43
606.58	43583.12
606.74	43859.30
606.89	44498.26
607.05	44362.51
607.20	45102.12
607.36	44603.59
607.51	44444.43
607.67	44217.40
607.82	43482.47
607.98	44238.47
608.13	43021.39
608.29	43515.24
608.44	44154.21
608.60	44498.26
608.75	44641.04
608.91	45654.49
609.06	42862.23
609.22	42871.59
609.37	42520.51
609.53	44140.16
609.68	42714.78
609.84	41841.76
609.99	41785.58
610.15	42667.97
610.30	43871.00
610.46	44315.70
610.61	42878.61
610.76	42644.56
610.92	41336.20
611.07	42298.16
611.23	44388.26
611.38	45785.56
611.54	45628.74
611.69	43763.34
611.84	41993.89
612.00	41116.19
612.15	41436.84
612.31	41696.64
612.46	42632.86
612.62	42316.89
612.77	40774.47
612.92	42777.97
613.08	41675.58
613.23	42513.49
613.39	42354.33
613.54	41628.77
613.69	40477.22
613.85	42078.15
614.00	42588.39
614.15	40975.76
614.31	41378.33
614.46	40877.46
614.62	42361.36
614.77	40893.84
614.92	41010.87
615.08	41649.83
615.23	40343.81
615.38	40931.29
615.54	41163.00
615.69	40041.88
615.84	39440.37
616.00	40257.21
616.15	41116.19
616.30	40299.34
616.46	40250.19
616.61	40086.36
616.76	41132.57
616.92	41230.88
617.07	41230.88
617.22	41062.36
617.37	40575.53
617.53	40868.09
617.68	40332.11
617.83	40252.53
617.99	41282.37
618.14	41247.26
618.29	40573.19
618.45	41024.91
618.60	40596.59
618.75	40409.35
618.90	39461.43
619.06	41097.47
619.21	41741.11
619.36	41158.32
619.51	41235.56
619.67	41720.05
619.82	42698.39
619.97	42508.81
620.12	41015.55
620.28	40154.23
620.43	40631.70
620.58	40222.11
620.73	41237.90
620.89	39667.40
621.04	38670.33
621.19	38391.81
621.34	38679.69
621.49	38061.79
621.65	38834.17
621.80	39103.33
621.95	39384.19
622.10	39611.23
622.25	39583.14
622.41	36807.26
622.56	37481.34
622.71	37427.51
622.86	37827.74
623.01	37027.28
623.16	36891.52
623.32	37106.85
623.47	36418.74
623.62	36577.89
623.77	37207.50
623.92	36772.16
624.07	36594.28
624.23	36348.52
624.38	36912.59
624.53	36959.40
624.68	37378.36
624.83	36287.67
624.98	36886.84
625.13	36048.93
625.29	35683.81
625.44	36446.82
625.59	36596.62
625.74	37081.11
625.89	36500.65
626.04	36500.65
626.19	37127.92
626.34	36968.76
626.49	36147.23
626.65	36336.82
626.80	35833.60
626.95	36114.47
627.10	34766.32
627.25	35016.75
627.40	34426.94
627.55	33577.33
627.70	33144.33
627.85	34300.55
628.00	33993.94
628.15	34209.27
628.30	35054.20
628.45	34639.93
628.60	34459.71
628.76	33706.05
628.91	33343.27
629.06	33378.38
629.21	35585.50
629.36	35365.49
629.51	33921.38
629.66	31377.22
629.81	32357.91
629.96	33097.52
630.11	33919.04
630.26	34059.48
630.41	35683.81
630.56	35819.56
630.71	35229.74
630.86	34139.05
631.01	32758.14
631.16	33221.56
631.31	32790.91
631.46	32919.63
631.61	31585.53
631.76	32456.21
631.91	33598.39
632.06	33439.23
632.21	34113.31
632.36	35515.29
632.51	35250.81
632.66	33769.25
632.81	33846.49
632.96	34588.44
633.10	34759.30
633.25	33666.27
633.40	31370.20
633.55	32142.58
633.70	32524.08
633.85	32381.31
634.00	32229.18
634.15	32542.81
634.30	32591.96
634.45	33427.53
634.60	32390.67
634.75	31960.02
634.90	32479.61
635.05	33223.90
635.19	31999.80
635.34	33277.74
635.49	32116.83
635.64	32147.26
635.79	33757.55
635.94	34089.90
636.09	34204.59
636.24	32613.02
636.39	31990.44
636.53	32390.67
636.68	31758.73
636.83	31337.43
636.98	32053.64
637.13	31669.79
637.28	32187.05
637.43	33216.88
637.57	33958.83
637.72	32393.01
637.87	32748.78
638.02	32428.12
638.17	33677.97
638.32	33776.27
638.46	33518.81
638.61	31051.89
638.76	31548.08
638.91	32418.76
639.06	32404.72
639.20	31494.25
639.35	29872.26
639.50	30464.41
639.65	31332.75
639.80	31070.61
639.94	31000.40
640.09	31732.98
640.24	30721.87
640.39	30724.21
640.54	29734.17
640.68	30422.28
640.83	29963.54
640.98	30665.70
641.13	30464.41
641.27	30204.61
641.42	29502.45
641.57	29982.26
641.72	30768.68
641.86	31030.82
642.01	31110.40
642.16	30125.04
642.31	30279.51
642.45	31360.84
642.60	30843.58
642.75	30244.40
642.90	30513.56
643.04	30558.03
643.19	29797.36
643.34	29949.50
643.48	29242.65
643.63	30719.53
643.78	28512.41
643.93	28816.68
644.07	29359.68
644.22	29862.90
644.37	29724.80
644.51	29525.86
644.66	29729.48
644.81	29933.11
644.95	30541.65
645.10	30448.03
645.25	29502.45
645.39	30146.10
645.54	29282.44
645.69	28273.67
645.83	28407.08
645.98	27597.26
646.13	26780.41
646.27	26525.29
646.42	26309.96
646.57	26340.39
646.71	26672.74
646.86	27250.86
647.00	26412.95
647.15	26885.73
647.30	27304.69
647.44	28184.73
647.59	27475.55
647.74	26761.69
647.88	27089.36
648.03	26544.02
648.17	27835.99
648.32	28737.10
648.47	29153.71
648.61	28451.55
648.76	29202.86
648.90	28137.92
649.05	27023.83
649.20	25862.92
649.34	25188.85
649.49	25280.13
649.63	26010.37
649.78	26831.90
649.92	27288.31
650.07	26590.83
650.21	26630.62
650.36	27840.67
650.51	27211.07
650.65	26771.05
650.80	26499.55
650.94	26522.95
651.09	26228.04
651.23	25216.93
651.38	25338.64
651.52	26136.76
651.67	25982.29
651.81	26258.47
651.96	26321.66
652.10	28498.36
652.25	27718.96
652.39	27552.79
652.54	27035.53
652.68	26698.49
652.83	26370.82
652.97	25881.64
653.12	25692.06
653.26	26162.51
653.41	26073.57
653.55	26008.03
653.70	25326.94
653.84	25785.68
653.99	26162.51
654.13	25717.81
654.27	26321.66
654.42	25340.98
654.56	24924.36
654.71	24807.34
654.85	25530.56
655.00	25598.44
655.14	25294.17
655.29	24706.70
655.43	23040.23
655.57	22061.89
655.72	20006.90
655.86	19288.35
656.01	18682.16
656.15	19796.25
656.30	20615.44
656.44	21766.98
656.58	22111.04
656.73	23386.63
656.87	23789.20
657.01	23688.56
657.16	23655.79
657.30	23566.85
657.45	23683.88
657.59	23498.98
657.73	24212.84
657.88	23545.79
658.02	23913.25
658.16	24369.66
658.31	24329.87
658.45	24102.84
658.60	23496.64
658.74	24482.00
658.88	24765.21
659.03	23817.29
659.17	23267.27
659.31	23080.02
659.46	23454.51
659.60	24514.77
659.74	24547.54
659.89	24444.56
660.03	25149.06
660.17	23941.34
660.32	23983.47
660.46	23931.98
660.60	24369.66
660.74	24336.89
660.89	24493.71
661.03	22883.42
661.17	23941.34
661.32	24463.28
661.46	25043.73
661.60	24706.70
661.74	24060.71
661.89	24751.17
662.03	23988.15
662.17	23665.16
662.31	24744.14
662.46	24596.69
662.60	24102.84
662.74	22710.22
662.88	22995.76
663.03	24084.11
663.17	23826.65
663.31	22359.14
663.45	23208.75
663.60	23044.91
663.74	21682.72
663.88	22441.06
664.02	22326.37
664.17	21692.08
664.31	20793.32
664.45	21771.66
664.59	22017.42
664.73	22977.04
664.88	21694.43
665.02	21191.21
665.16	21490.80
665.30	22281.90
665.44	23658.14
665.59	24355.61
665.73	23630.05
665.87	23049.60
666.01	22281.90
666.15	21399.52
666.29	20533.52
666.44	21291.85
666.58	21153.76
666.72	22436.38
666.86	23227.48
667.00	23417.06
667.14	23936.66
667.28	22871.72
667.43	22775.75
667.57	21546.97
667.71	21724.85
667.85	21195.89
667.99	20760.55
668.13	20348.62
668.27	20236.27
668.41	20212.87
668.56	21525.91
668.70	22024.44
668.84	23061.30
668.98	23285.99
669.12	22595.53
669.26	21928.48
669.40	22265.52
669.54	21301.22
669.68	20788.64
669.82	20159.03
669.96	20905.66
670.10	21902.73
670.25	22508.93
670.39	21785.71
670.53	21362.07
670.67	20535.86
670.81	20240.95
670.95	19826.68
671.09	20105.20
671.23	20032.65
671.37	20273.72
671.51	20463.30
671.65	20245.63
671.79	20203.50
671.93	20688.00
672.07	20563.95
672.21	19367.93
672.35	19452.19
672.49	19929.66
672.63	20140.31
672.77	19688.59
672.91	19145.58
673.05	19037.92
673.19	18927.91
673.33	20084.14
673.47	20847.15
673.61	20585.01
673.75	19594.96
673.89	18532.36
674.03	18679.82
674.17	18548.75
674.31	19164.31
674.45	19246.23
674.59	19267.29
674.73	19424.11
674.87	18991.11
675.01	18576.83
675.15	18466.83
675.29	18780.46
675.43	18487.89
675.56	18286.61
675.70	17811.48
675.84	17717.86
675.98	18113.41
676.12	17809.14
676.26	17851.27
676.40	17713.17
676.54	17542.32
676.68	17500.19
676.82	17699.13
676.96	17972.97
677.10	17762.33
677.23	18511.30
677.37	18848.33
677.51	18017.44
677.65	17317.62
677.79	15995.22
677.93	16437.58
678.07	16128.63
678.21	16842.50
678.34	17472.10
678.48	17139.74
678.62	16622.48
678.76	16489.07
678.90	16702.06
679.04	16769.94
679.18	16156.72
679.31	16037.35
679.45	16240.98
679.59	16865.90
679.73	17032.08
679.87	17123.36
680.00	17544.66
680.14	17053.14
680.28	16987.61
680.42	16224.59
680.56	15974.16
680.70	16493.76
680.83	16673.98
680.97	15896.92
681.11	16252.68
681.25	16025.65
681.39	16112.25
681.52	16093.52
681.66	15740.10
681.80	15187.74
681.94	15225.18
682.07	15342.21
682.21	15131.56
682.35	15627.76
682.49	15140.93
682.62	15571.58
682.76	15494.35
682.90	14977.09
683.04	14413.02
683.17	14022.15
683.31	14193.01
683.45	14567.49
683.59	14867.08
683.72	14398.98
683.86	14260.88
684.00	13415.95
684.13	13764.69
684.27	13563.40
684.41	14356.85
684.55	14354.51
684.68	14799.21
684.82	14223.44
684.96	13951.93
685.09	13886.40
685.23	13486.17
685.37	13385.52
685.50	13219.35
685.64	13408.93
685.78	12531.23
685.91	13055.51
686.05	13107.00
686.19	12971.25
686.32	12353.35
686.46	10939.66
686.60	9427.68
686.73	8765.31
686.87	7714.41
687.01	7953.14
687.14	8346.35
687.28	8795.73
687.42	9219.37
687.55	9872.38
687.69	10090.05
687.82	10637.73
687.96	11087.12
688.10	11103.50
688.23	11461.60
688.37	10757.10
688.50	10340.49
688.64	10223.46
688.78	10136.86
688.91	10267.93
689.05	9865.36
689.18	10258.57
689.32	10534.75
689.46	10443.47
689.59	10265.59
689.73	10696.25
689.86	10396.66
690.00	10328.78
690.13	10335.81
690.27	10214.10
690.41	10771.15
690.54	10272.61
690.68	10759.44
690.81	11016.90
690.95	10581.56
691.08	10726.68
691.22	10541.77
691.35	10796.89
691.49	10986.47
691.62	10846.04
691.76	11351.60
691.89	10654.12
692.03	9804.50
692.16	9738.97
692.30	10188.35
692.43	10359.21
692.57	10223.46
692.70	10029.20
692.84	9832.59
692.97	10050.26
693.11	10478.58
693.24	10193.03
693.38	9621.94
693.51	10471.56
693.65	10391.98
693.78	9954.30
693.92	9717.90
694.05	9841.95
694.19	9661.73
694.32	9334.06
694.45	9509.60
694.59	9516.62
694.72	9210.01
694.86	9277.88
694.99	9626.62
695.13	9067.24
695.26	9121.07
695.39	9090.64
695.53	8512.53
695.66	8212.94
695.80	8905.74
695.93	9041.49
696.07	9160.86
696.20	9219.37
696.33	9191.28
696.47	9753.01
696.60	9200.65
696.73	9139.79
696.87	9174.90
697.00	9724.93
697.14	9579.81
697.27	9228.73
697.40	8968.93
697.54	8489.12
697.67	8397.84
697.80	8608.49
697.94	8777.01
698.07	8318.26
698.21	7978.89
698.34	7892.29
698.47	8491.46
698.61	8053.78
698.74	8170.81
698.87	8011.65
699.01	8011.65
699.14	8091.23
699.27	8084.21
699.40	8306.56
699.54	8320.60
699.67	8381.46
699.80	8367.42
699.94	8219.96
700.07	7852.50
700.20	7332.90
700.34	7531.84
700.47	7637.17
700.60	7681.64
700.73	7793.98
700.87	7375.03
701.00	6951.39
701.13	7133.95
701.26	7325.88
701.40	7250.98
701.53	7258.00
701.66	7784.62
701.79	7541.21
701.93	7463.97
702.06	7414.82
702.19	7199.49
702.32	6970.12
702.46	7096.50
702.59	7159.70
702.72	7379.71
702.85	6920.96
702.99	7037.99
703.12	7183.10
703.25	7105.87
703.38	6991.18
703.51	6853.09
703.65	6752.45
703.78	7080.12
703.91	6750.10
704.04	7206.51
704.17	6878.83
704.31	7105.87
704.44	6970.12
704.57	7246.30
704.70	7449.93
704.83	7417.16
704.96	7494.40
705.10	7042.67
705.23	7148.00
>>>>>End Processed Spectral Data<<<<<
