SpectraSuite Data File
++++++++++++++++++++++++++++++++++++
Date: Mon Oct 07 14:54:58 GMT-05:00 2013
User: price-jones
Dark Spectrum Present: No
Reference Spectrum Present: No
Number of Sampled Component Spectra: 1
Spectrometers: USB2+H05261
Integration Time (usec): 10000 (USB2+H05261)
Spectra Averaged: 1 (USB2+H05261)
Boxcar Smoothing: 0 (USB2+H05261)
Correct for Electrical Dark: No (USB2+H05261)
Strobe/Lamp Enabled: No (USB2+H05261)
Correct for Detector Non-linearity: No (USB2+H05261)
Correct for Stray Light: No (USB2+H05261)
Number of Pixels in Processed Spectrum: 2048
>>>>>Begin Processed Spectral Data<<<<<
365.73	0.00
365.92	0.00
366.12	0.00
366.32	0.00
366.52	0.00
366.72	0.00
366.91	0.00
367.11	0.00
367.31	0.00
367.51	0.00
367.70	0.00
367.90	0.00
368.10	0.00
368.30	0.00
368.49	0.00
368.69	0.00
368.89	0.00
369.09	0.00
369.28	0.00
369.48	0.00
369.68	0.00
369.87	0.00
370.07	0.00
370.27	0.00
370.47	0.00
370.66	585.13
370.86	723.23
371.06	821.53
371.25	793.44
371.45	699.82
371.65	566.41
371.84	617.90
372.04	603.86
372.24	711.52
372.44	753.65
372.63	767.70
372.83	678.76
373.03	589.82
373.22	477.47
373.42	641.31
373.62	669.39
373.81	807.48
374.01	793.44
374.21	596.84
374.40	699.82
374.60	683.44
374.79	655.35
374.99	898.77
375.19	903.45
375.38	954.94
375.58	912.81
375.78	964.30
375.97	847.27
376.17	961.96
376.37	917.49
376.56	1043.88
376.76	1048.56
376.95	1076.65
377.15	1252.19
377.35	1280.27
377.54	1437.09
377.74	1371.55
377.93	1299.00
378.13	1214.74
378.33	1228.78
378.52	1090.69
378.72	966.64
378.91	1167.93
379.11	1001.75
379.31	933.87
379.50	973.66
379.70	1102.39
379.89	1282.61
380.09	1177.29
380.28	1282.61
380.48	1345.81
380.68	1233.46
380.87	1254.53
381.07	1074.31
381.26	1039.20
381.46	910.47
381.65	966.64
381.85	983.02
382.04	798.12
382.24	826.21
382.43	638.97
382.63	650.67
382.83	744.29
383.02	786.42
383.22	664.71
383.41	702.16
383.61	744.29
383.80	901.11
384.00	1104.73
384.19	1086.01
384.39	1167.93
384.58	1224.10
384.78	1121.12
384.97	1186.65
385.17	1088.35
385.36	1102.39
385.56	1081.33
385.75	1135.16
385.95	1191.33
386.14	1310.70
386.34	1142.18
386.53	1121.12
386.72	1074.31
386.92	1177.29
387.11	1205.38
387.31	1184.31
387.50	1224.10
387.70	1177.29
387.89	1104.73
388.09	1231.12
388.28	1263.89
388.48	1240.48
388.67	1263.89
388.86	1458.15
389.06	1645.40
389.25	1638.38
389.45	1654.76
389.64	1732.00
389.84	1668.80
390.03	1626.67
390.22	1682.85
390.42	1732.00
390.61	1856.04
390.81	1935.62
391.00	1973.07
391.19	1860.73
391.39	1830.30
391.58	1682.85
391.78	1572.84
391.97	1633.69
392.16	1460.49
392.36	1252.19
392.55	961.96
392.75	667.05
392.94	601.52
393.13	606.20
393.33	753.65
393.52	1100.05
393.71	1287.29
393.91	1430.07
394.10	1565.82
394.29	1797.53
394.49	1959.03
394.68	2024.56
394.88	1966.05
395.07	2104.14
395.26	1963.71
395.46	2054.99
395.65	1816.26
395.84	1533.05
396.04	1287.29
396.23	933.87
396.42	798.12
396.62	795.78
396.81	1032.18
397.00	1392.62
397.19	1856.04
397.39	2120.53
397.58	2331.17
397.77	2422.45
397.97	2401.39
398.16	2637.78
398.35	2712.68
398.55	2626.08
398.74	2874.18
398.93	2885.88
399.12	2857.79
399.32	2605.02
399.51	2874.18
399.70	2906.95
399.90	2787.58
400.09	2853.11
400.28	2857.79
400.47	2972.48
400.67	3047.38
400.86	3089.51
401.05	3068.44
401.24	3077.80
401.44	3241.64
401.63	3262.71
401.82	3199.51
402.01	3054.40
402.21	3119.93
402.40	3192.49
402.59	3164.40
402.78	3007.59
402.97	2892.90
403.17	3094.19
403.36	3211.22
403.55	3286.11
403.74	3283.77
403.93	3148.02
404.13	2855.45
404.32	2789.92
404.51	3042.70
404.70	3255.69
404.89	3391.44
405.09	3208.87
405.28	3000.57
405.47	3035.67
405.66	3101.21
405.85	3016.95
406.05	2930.35
406.24	2956.10
406.43	2909.29
406.62	3218.24
406.81	3141.00
407.00	2949.08
407.20	3084.83
407.39	2925.67
407.58	3185.47
407.77	3342.28
407.96	3358.67
408.15	3400.80
408.34	3471.01
408.54	3667.62
408.73	3445.27
408.92	3520.17
409.11	3339.94
409.30	3047.38
409.49	2878.86
409.68	2745.45
409.87	2745.45
410.07	3059.08
410.26	3035.67
410.45	3508.46
410.64	3431.23
410.83	3536.55
411.02	3581.02
411.21	3719.11
411.40	3655.92
411.59	3695.71
411.78	3737.84
411.98	3620.81
412.17	3597.40
412.36	3534.21
412.55	3630.17
412.74	3342.28
412.93	3536.55
413.12	3672.30
413.31	3805.71
413.50	3822.09
413.69	3744.86
413.88	3590.38
414.07	3531.87
414.26	3716.77
414.45	3808.05
414.64	3822.09
414.83	3742.52
415.02	3880.61
415.22	3719.11
415.41	3859.54
415.60	4084.23
415.79	4039.76
415.98	4201.26
416.17	4189.56
416.36	4004.66
416.55	3962.53
416.74	3829.12
416.93	3669.96
417.12	3691.02
417.31	3829.12
417.50	3733.15
417.69	3918.06
417.88	3943.80
418.07	3801.03
418.26	3854.86
418.45	3936.78
418.64	4128.70
418.83	4224.67
419.02	3981.25
419.21	3920.40
419.39	3709.75
419.58	3681.66
419.77	3747.20
419.96	3709.75
420.15	4002.32
420.34	4259.78
420.53	4227.01
420.72	4297.22
420.91	4320.63
421.10	4187.22
421.29	4063.17
421.48	4009.34
421.67	4325.31
421.86	4126.36
422.05	3723.79
422.24	3562.30
422.43	3452.29
422.61	3812.73
422.80	4100.62
422.99	4128.70
423.18	3782.31
423.37	3894.65
423.56	3953.16
423.75	3824.44
423.94	3887.63
424.13	3665.28
424.32	3887.63
424.50	4032.74
424.69	3857.20
424.88	3786.99
425.07	3782.31
425.26	3765.92
425.45	3712.09
425.64	3691.02
425.83	3733.15
426.01	3918.06
426.20	3901.67
426.39	3873.59
426.58	3489.74
426.77	3384.41
426.96	3206.53
427.15	3428.88
427.33	3646.55
427.52	3698.05
427.71	3756.56
427.90	3595.06
428.09	3592.72
428.28	3485.06
428.46	3349.31
428.65	3489.74
428.84	3562.30
429.03	3578.68
429.22	3255.69
429.40	2995.89
429.59	2789.92
429.78	2485.65
429.97	2471.61
430.16	2445.86
430.34	2516.08
430.53	2616.72
430.72	2605.02
430.91	2911.63
431.10	3358.67
431.28	3967.21
431.47	4259.78
431.66	4325.31
431.85	3889.97
432.03	3566.98
432.22	3473.36
432.41	3805.71
432.60	4032.74
432.79	4093.60
432.97	4236.37
433.16	4105.30
433.35	3740.18
433.54	3403.14
433.72	3122.27
433.91	3276.75
434.10	3716.77
434.28	3976.57
434.47	4131.05
434.66	3990.61
434.85	3911.04
435.03	3831.46
435.22	4081.89
435.41	4182.54
435.59	4245.73
435.78	4238.71
435.97	4358.08
436.16	4482.13
436.34	4390.84
436.53	4229.35
436.72	4290.20
436.90	4084.23
437.09	3936.78
437.28	3985.93
437.46	4147.43
437.65	4004.66
437.84	3571.66
438.02	3478.04
438.21	3503.78
438.40	3515.48
438.58	3836.14
438.77	3911.04
438.96	3990.61
439.14	4117.00
439.33	4245.73
439.52	4507.87
439.70	4241.05
439.89	4250.41
440.08	3995.29
440.26	4091.26
440.45	4337.01
440.63	4512.55
440.82	4720.86
441.01	4638.94
441.19	4564.04
441.38	4720.86
441.57	4805.12
441.75	4779.37
441.94	4877.68
442.12	4786.40
442.31	4800.44
442.50	5041.51
442.68	4760.65
442.87	4840.23
443.05	4627.24
443.24	4873.00
443.43	4880.02
443.61	4940.87
443.80	5036.83
443.98	4709.16
444.17	4800.44
444.35	5043.85
444.54	5006.41
444.73	4945.55
444.91	4828.53
445.10	4528.94
445.28	4365.10
445.47	4337.01
445.65	4315.95
445.84	4376.80
446.02	4657.67
446.21	4767.67
446.39	4702.14
446.58	4840.23
446.77	4903.42
446.95	4884.70
447.14	4971.30
447.32	4961.94
447.51	5036.83
447.69	4741.93
447.88	4704.48
448.06	4774.69
448.25	4873.00
448.43	4865.97
448.62	4709.16
448.80	4690.43
448.99	4837.89
449.17	5102.37
449.36	4762.99
449.54	5078.96
449.73	4990.02
449.91	5053.22
450.10	5254.50
450.28	5214.71
450.46	5231.10
450.65	5317.70
450.83	5139.82
451.02	5013.43
451.20	5046.20
451.39	5013.43
451.57	5022.79
451.76	4961.94
451.94	4971.30
452.13	4678.73
452.31	4594.47
452.49	4409.57
452.68	4505.53
452.86	4435.32
453.05	4582.77
453.23	4660.01
453.42	4709.16
453.60	4894.06
453.78	4882.36
453.97	4905.76
454.15	4905.76
454.34	4746.61
454.52	4601.49
454.70	4608.51
454.89	4678.73
455.07	4697.46
455.26	4870.65
455.44	4877.68
455.62	4964.28
455.81	5046.20
455.99	4898.74
456.17	4931.51
456.36	4933.85
456.54	5102.37
456.73	5132.79
456.91	5233.44
457.09	5132.79
457.28	5076.62
457.46	5043.85
457.64	5165.56
457.83	4964.28
458.01	4936.19
458.19	4840.23
458.38	4894.06
458.56	5008.75
458.74	5050.88
458.93	5004.07
459.11	4903.42
459.29	4898.74
459.48	4943.21
459.66	4894.06
459.84	4933.85
460.03	4954.91
460.21	4870.65
460.39	5097.69
460.57	5151.52
460.76	5146.84
460.94	5114.07
461.12	4887.04
461.31	4997.04
461.49	5013.43
461.67	5006.41
461.85	5219.39
462.04	5261.52
462.22	5006.41
462.40	5165.56
462.59	5081.30
462.77	4922.15
462.95	5093.01
463.13	5102.37
463.32	4851.93
463.50	4863.63
463.68	4865.97
463.86	4959.60
464.05	4812.14
464.23	4718.52
464.41	4802.78
464.59	4723.20
464.78	4755.97
464.96	4978.32
465.14	4919.81
465.32	4931.51
465.50	5228.76
465.69	5064.92
465.87	4971.30
466.05	4823.84
466.23	4582.77
466.41	4428.29
466.60	4685.75
466.78	4844.91
466.96	4629.58
467.14	4739.58
467.32	4730.22
467.51	4896.40
467.69	4550.00
467.87	4685.75
468.05	4762.99
468.23	4753.63
468.41	4692.77
468.60	4720.86
468.78	4805.12
468.96	4755.97
469.14	4702.14
469.32	4788.74
469.50	4655.33
469.69	4587.45
469.87	4430.63
470.05	4587.45
470.23	4484.47
470.41	4486.81
470.59	4662.35
470.77	4744.27
470.95	4704.48
471.14	4816.82
471.32	4760.65
471.50	5217.05
471.68	5100.03
471.86	5121.09
472.04	5130.45
472.22	5317.70
472.40	4940.87
472.58	4873.00
472.77	4830.87
472.95	5109.39
473.13	4990.02
473.31	4814.48
473.49	4945.55
473.67	4933.85
473.85	4945.55
474.03	5210.03
474.21	5172.58
474.39	5093.01
474.57	5181.95
474.75	5165.56
474.93	5228.76
475.12	5006.41
475.30	5076.62
475.48	5116.41
475.66	5252.16
475.84	5015.77
476.02	5165.56
476.20	4983.00
476.38	4870.65
476.56	5125.77
476.74	5280.25
476.92	5308.34
477.10	5350.46
477.28	5448.77
477.46	5392.59
477.64	5706.23
477.82	5488.56
478.00	5654.73
478.18	5481.53
478.36	5404.30
478.54	5437.06
478.72	5497.92
478.90	5603.24
479.08	5776.44
479.26	6057.31
479.44	5959.00
479.62	5902.83
479.80	5720.27
479.98	5631.33
480.16	5753.04
480.34	5596.22
480.52	5865.38
480.70	5757.72
480.88	5722.61
481.06	5914.53
481.24	5954.32
481.41	6012.84
481.59	6118.16
481.77	6150.93
481.95	5994.11
482.13	6022.20
482.31	6024.54
482.49	6167.31
482.67	6179.01
482.85	6064.33
483.03	6394.34
483.21	6244.55
483.39	6214.12
483.57	6150.93
483.74	6242.21
483.92	6171.99
484.10	6031.56
484.28	6122.84
484.46	6179.01
484.64	6464.56
484.82	6422.43
485.00	6085.39
485.18	6167.31
485.35	5853.68
485.53	5294.29
485.71	4744.27
485.89	4830.87
486.07	5121.09
486.25	5486.22
486.43	5916.87
486.61	5916.87
486.78	5844.32
486.96	6026.88
487.14	6347.53
487.32	6504.35
487.50	6466.90
487.68	6789.89
487.85	6787.55
488.03	6789.89
488.21	6609.67
488.39	6586.27
488.57	6553.50
488.75	6263.27
488.92	6633.08
489.10	7014.59
489.28	7180.76
489.46	7538.87
489.64	7410.14
489.81	7564.61
489.99	7368.01
490.17	7211.19
490.35	7232.26
490.53	7421.84
490.70	7026.29
490.88	7307.15
491.06	7463.97
491.24	7337.58
491.41	7035.65
491.59	6766.49
491.77	6597.97
491.95	6972.46
492.13	7073.10
492.30	7417.16
492.48	7655.89
492.66	7887.61
492.84	7880.58
493.01	7691.00
493.19	7527.16
493.37	7253.32
493.54	7110.55
493.72	7538.87
493.90	7641.85
494.08	7824.41
494.25	8168.47
494.43	8159.11
494.61	8205.92
494.79	8285.50
494.96	8177.83
495.14	7782.28
495.32	7616.10
495.49	7683.98
495.67	7915.69
495.85	8088.89
496.02	8250.39
496.20	8119.32
496.38	7906.33
496.55	8065.49
496.73	8184.85
496.91	8243.37
497.09	8318.26
497.26	8360.39
497.44	8355.71
497.62	8124.00
497.79	7873.56
497.97	7630.15
498.14	7623.12
498.32	7978.89
498.50	8161.45
498.67	8262.09
498.85	8315.92
499.03	8332.31
499.20	8381.46
499.38	8229.32
499.56	8411.89
499.73	8152.09
499.91	7995.27
500.08	8030.38
500.26	7686.32
500.44	7861.86
500.61	7765.90
500.79	8121.66
500.97	7875.90
501.14	7709.72
501.32	7653.55
501.49	7918.03
501.67	7728.45
501.84	7934.42
502.02	8025.70
502.20	8226.98
502.37	8065.49
502.55	8035.06
502.72	8105.28
502.90	8297.20
503.07	8325.29
503.25	8023.36
503.43	7999.95
503.60	7824.41
503.78	7672.28
503.95	7681.64
504.13	7925.05
504.30	8226.98
504.48	8037.40
504.65	8231.66
504.83	8044.42
505.01	8428.27
505.18	8685.73
505.36	8587.43
505.53	8774.67
505.71	8922.12
505.88	8594.45
506.06	8681.05
506.23	8507.85
506.41	8404.86
506.58	8341.67
506.76	8243.37
506.93	8390.82
507.11	8346.35
507.28	8386.14
507.46	8170.81
507.63	8079.53
507.81	7833.77
507.98	8032.72
508.16	8290.18
508.33	8301.88
508.50	8496.14
508.68	8585.08
508.85	8643.60
509.03	8470.40
509.20	8535.93
509.38	8336.99
509.55	8142.72
509.73	8217.62
509.90	8320.60
510.08	8257.41
510.25	8332.31
510.42	8133.36
510.60	8217.62
510.77	8533.59
510.95	8374.44
511.12	8446.99
511.30	8659.98
511.47	8814.46
511.64	8681.05
511.82	8645.94
511.99	8269.11
512.17	8198.90
512.34	8032.72
512.51	8081.87
512.69	8304.22
512.86	8264.43
513.04	8212.94
513.21	8421.25
513.38	8386.14
513.56	8035.06
513.73	8009.31
513.90	8053.78
514.08	7859.52
514.25	8147.40
514.43	8234.00
514.60	8294.86
514.77	8210.60
514.95	8245.71
515.12	8215.28
515.29	8278.47
515.47	8381.46
515.64	8360.39
515.81	8306.56
515.99	8168.47
516.16	7705.04
516.33	7091.82
516.51	6513.71
516.68	6459.88
516.85	6370.94
517.03	6471.58
517.20	7061.40
517.37	7651.21
517.54	8002.29
517.72	7983.57
517.89	7307.15
518.06	6726.70
518.24	6743.08
518.41	7433.54
518.58	7618.44
518.75	7782.28
518.93	7765.90
519.10	7810.37
519.27	7880.58
519.45	7999.95
519.62	8102.93
519.79	8229.32
519.96	8180.17
520.14	8049.10
520.31	7843.14
520.48	7648.87
520.65	7782.28
520.83	7957.82
521.00	8294.86
521.17	8079.53
521.34	7967.18
521.52	8173.15
521.69	8285.50
521.86	8517.21
522.03	8306.56
522.20	7772.92
522.38	7772.92
522.55	7492.05
522.72	7592.70
522.89	7943.78
523.07	7803.35
523.24	8009.31
523.41	8374.44
523.58	8264.43
523.75	8414.23
523.92	8489.12
524.10	8264.43
524.27	8287.84
524.44	8334.65
524.61	8341.67
524.78	8100.59
524.96	8091.23
525.13	8121.66
525.30	8276.13
525.47	8547.64
525.64	8280.82
525.81	8074.85
525.98	7576.31
526.16	7084.80
526.33	7059.06
526.50	6916.28
526.67	7080.12
526.84	7119.91
527.01	7332.90
527.18	7452.27
527.36	7838.45
527.53	8025.70
527.70	7964.84
527.87	7871.22
528.04	7747.17
528.21	8037.40
528.38	8159.11
528.55	8545.30
528.72	8327.63
528.89	8439.97
529.07	8456.36
529.24	8018.68
529.41	8121.66
529.58	7850.16
529.75	7929.74
529.92	7971.86
530.09	8091.23
530.26	8163.79
530.43	8135.70
530.60	8280.82
530.77	8439.97
530.94	8503.17
531.11	8091.23
531.28	7964.84
531.46	8126.34
531.63	8002.29
531.80	8081.87
531.97	7866.54
532.14	7613.76
532.31	7375.03
532.48	7157.36
532.65	7433.54
532.82	7431.20
532.99	7784.62
533.16	7810.37
533.33	8093.57
533.50	7985.91
533.67	7672.28
533.84	7595.04
534.01	7765.90
534.18	7903.99
534.35	7838.45
534.52	7822.07
534.69	7950.80
534.86	7810.37
535.03	7957.82
535.20	8088.89
535.37	8271.45
535.54	8273.79
535.71	8056.12
535.88	8100.59
536.05	8039.74
536.22	7698.02
536.38	7742.49
536.55	7665.25
536.72	7391.41
536.89	7290.77
537.06	7396.09
537.23	7854.84
537.40	7939.10
537.57	7871.22
537.74	7747.17
537.91	7606.74
538.08	7653.55
538.25	7784.62
538.42	7700.36
538.59	7658.23
538.75	7620.78
538.92	7705.04
539.09	7412.48
539.26	7445.24
539.43	7335.24
539.60	7431.20
539.77	7351.62
539.94	7258.00
540.11	7180.76
540.28	6979.48
540.44	7021.61
540.61	7124.59
540.78	7206.51
540.95	7297.79
541.12	7337.58
541.29	7527.16
541.46	7569.29
541.62	7592.70
541.79	7602.06
541.96	7534.18
542.13	7243.96
542.30	7372.69
542.47	7321.20
542.63	7438.22
542.80	7052.03
542.97	7323.54
543.14	7421.84
543.31	7445.24
543.48	7311.83
543.64	7620.78
543.81	7999.95
543.98	7850.16
544.15	7618.44
544.32	7391.41
544.48	7393.75
544.65	7318.86
544.82	7592.70
544.99	7438.22
545.16	7239.28
545.32	7386.73
545.49	7466.31
545.66	7702.70
545.83	7489.71
546.00	7559.93
546.16	7274.38
546.33	7461.63
546.50	7379.71
546.67	7562.27
546.83	7569.29
547.00	7229.91
547.17	7262.68
547.34	6956.07
547.50	6977.14
547.67	7023.95
547.84	7159.70
548.00	7070.76
548.17	7328.22
548.34	7368.01
548.51	7213.53
548.67	7541.21
548.84	7485.03
549.01	7316.51
549.18	7225.23
549.34	7248.64
549.51	7208.85
549.68	7342.26
549.84	7187.79
550.01	7091.82
550.18	7054.37
550.34	6876.49
550.51	7068.42
550.68	7232.26
550.84	6895.22
551.01	6920.96
551.18	6874.15
551.34	7094.16
551.51	7358.64
551.68	7258.00
551.84	7276.73
552.01	7016.93
552.18	7173.74
552.34	7030.97
552.51	6956.07
552.68	6956.07
552.84	6696.27
553.01	6995.86
553.18	7138.63
553.34	7063.74
553.51	6977.14
553.67	7115.23
553.84	7119.91
554.01	7164.38
554.17	7206.51
554.34	7103.53
554.51	7140.97
554.67	7101.19
554.84	7248.64
555.00	7197.15
555.17	6953.73
555.33	7063.74
555.50	7063.74
555.67	6916.28
555.83	6876.49
556.00	6902.24
556.16	6843.73
556.33	6839.05
556.50	6740.74
556.66	6583.93
556.83	6815.64
556.99	6644.78
557.16	6738.40
557.32	6815.64
557.49	6942.03
557.65	6813.30
557.82	6803.94
557.98	6656.48
558.15	6719.68
558.32	6354.55
558.48	6303.06
558.65	6352.21
558.81	6466.90
558.98	6490.31
559.14	6443.49
559.31	6527.75
559.47	6612.01
559.64	6466.90
559.80	6399.02
559.97	6312.42
560.13	6356.90
560.30	6576.91
560.46	6911.60
560.63	7033.31
560.79	6939.69
560.96	6841.39
561.12	6408.39
561.29	6267.95
561.45	6305.40
561.61	6342.85
561.78	6232.85
561.94	6429.45
562.11	6450.52
562.27	6392.00
562.44	6464.56
562.60	6630.74
562.77	6757.13
562.93	6429.45
563.10	6455.20
563.26	6424.77
563.42	6502.01
563.59	6274.98
563.75	6349.87
563.92	6340.51
564.08	6576.91
564.24	6324.13
564.41	6415.41
564.57	6406.05
564.74	6464.56
564.90	6520.73
565.07	6375.62
565.23	6258.59
565.39	6211.78
565.56	6069.01
565.72	6134.54
565.88	6012.84
566.05	5991.77
566.21	6083.05
566.38	6176.67
566.54	6321.79
566.70	6324.13
566.87	6335.83
567.03	6443.49
567.19	6420.09
567.36	6319.45
567.52	6490.31
567.68	6260.93
567.85	6054.97
568.01	5926.24
568.17	5975.39
568.34	5895.81
568.50	5851.34
568.66	5987.09
568.83	6001.13
568.99	6120.50
569.15	6064.33
569.32	6132.20
569.48	6005.81
569.64	6022.20
569.81	5844.32
569.97	5916.87
570.13	5902.83
570.30	5867.72
570.46	5738.99
570.62	5586.86
570.78	5474.51
570.95	5640.69
571.11	5795.17
571.27	5830.27
571.43	5792.83
571.60	5823.25
571.76	5769.42
571.92	6010.50
572.09	5942.62
572.25	6111.14
572.41	5961.34
572.57	5949.64
572.74	6069.01
572.90	5816.23
573.06	5888.79
573.22	5989.43
573.38	5959.00
573.55	5886.45
573.71	5844.32
573.87	5851.34
574.03	5762.40
574.20	5867.72
574.36	5750.70
574.52	5830.27
574.68	5746.02
574.84	5741.33
575.01	5547.07
575.17	5495.58
575.33	5483.88
575.49	5563.45
575.65	5474.51
575.82	5465.15
575.98	5638.35
576.14	5603.24
576.30	5589.20
576.46	5624.31
576.62	5746.02
576.79	5884.11
576.95	5568.13
577.11	5556.43
577.27	5469.83
577.43	5666.44
577.59	5486.22
577.75	5521.32
577.92	5423.02
578.08	5327.06
578.24	5462.81
578.40	5408.98
578.56	5394.93
578.72	5439.40
578.88	5502.60
579.04	5500.26
579.21	5495.58
579.37	5469.83
579.53	5514.30
579.69	5535.37
579.85	5636.01
580.01	5514.30
580.17	5432.38
580.33	5458.13
580.49	5479.19
580.65	5547.07
580.82	5439.40
580.98	5357.49
581.14	5474.51
581.30	5605.58
581.46	5495.58
581.62	5514.30
581.78	5589.20
581.94	5579.84
582.10	5427.70
582.26	5617.29
582.42	5511.96
582.58	5537.71
582.74	5483.88
582.90	5348.12
583.06	5474.51
583.22	5486.22
583.38	5596.22
583.54	5446.43
583.70	5465.15
583.86	5392.59
584.02	5399.62
584.18	5617.29
584.34	5469.83
584.50	5490.90
584.66	5364.51
584.82	5345.78
584.98	5200.67
585.14	5329.40
585.30	4987.68
585.46	5240.46
585.62	5043.85
585.78	5245.14
585.94	5153.86
586.10	5158.54
586.26	5228.76
586.42	5165.56
586.58	5191.31
586.74	5177.26
586.90	5219.39
587.06	5200.67
587.22	5200.67
587.38	5172.58
587.54	5046.20
587.70	5074.28
587.86	5069.60
588.02	5022.79
588.18	4880.02
588.34	4774.69
588.49	4566.39
588.65	4325.31
588.81	4388.50
588.97	4255.09
589.13	4280.84
589.29	4393.19
589.45	4393.19
589.61	4512.55
589.77	4922.15
589.93	4748.95
590.08	4947.89
590.24	5076.62
590.40	4933.85
590.56	4933.85
590.72	4786.40
590.88	4926.83
591.04	4819.16
591.20	4823.84
591.35	4739.58
591.51	4601.49
591.67	4793.42
591.83	4613.20
591.99	4734.90
592.15	4704.48
592.31	4823.84
592.46	4889.38
592.62	4760.65
592.78	4664.69
592.94	4711.50
593.10	4800.44
593.26	4840.23
593.41	4875.34
593.57	4840.23
593.73	4755.97
593.89	4547.66
594.05	4650.64
594.20	4573.41
594.36	4645.96
594.52	4482.13
594.68	4538.30
594.84	4540.64
594.99	4676.39
595.15	4573.41
595.31	4744.27
595.47	4629.58
595.62	4678.73
595.78	4678.73
595.94	4718.52
596.10	4725.54
596.25	4716.18
596.41	4695.11
596.57	4585.11
596.73	4734.90
596.88	4734.90
597.04	4641.28
597.20	4479.79
597.36	4592.13
597.51	4704.48
597.67	4599.15
597.83	4561.70
597.99	4442.34
598.14	4573.41
598.30	4365.10
598.46	4496.17
598.61	4505.53
598.77	4582.77
598.93	4554.68
599.09	4526.60
599.24	4507.87
599.40	4444.68
599.56	4573.41
599.71	4671.71
599.87	4615.54
600.03	4435.32
600.18	4428.29
600.34	4491.49
600.50	4437.66
600.65	4564.04
600.81	4472.76
600.97	4386.16
601.12	4470.42
601.28	4514.89
601.44	4259.78
601.59	4234.03
601.75	4374.46
601.91	4372.12
602.06	4421.27
602.22	4372.12
602.37	4306.59
602.53	4353.40
602.69	4341.69
602.84	4517.23
603.00	4353.40
603.16	4564.04
603.31	4468.08
603.47	4418.93
603.62	4369.78
603.78	4472.76
603.94	4465.74
604.09	4463.40
604.25	4210.62
604.40	4379.14
604.56	4468.08
604.71	4227.01
604.87	4409.57
605.03	4381.48
605.18	4259.78
605.34	4477.44
605.49	4315.95
605.65	4236.37
605.80	4290.20
605.96	4173.18
606.12	4442.34
606.27	4332.33
606.43	4070.19
606.58	4255.09
606.74	4210.62
606.89	4236.37
607.05	4339.35
607.20	4294.88
607.36	4259.78
607.51	4262.12
607.67	4252.75
607.82	4318.29
607.98	4175.52
608.13	4180.20
608.29	4117.00
608.44	4149.77
608.60	3988.27
608.75	4039.76
608.91	4287.86
609.06	3999.98
609.22	4238.71
609.37	4035.08
609.53	4126.36
609.68	4124.02
609.84	3990.61
609.99	3934.44
610.15	3852.52
610.30	3934.44
610.46	4046.79
610.61	3974.23
610.76	4065.51
610.92	4098.28
611.07	4262.12
611.23	4074.87
611.38	4229.35
611.54	4100.62
611.69	3957.85
611.84	3749.54
612.00	3908.69
612.15	3854.86
612.31	3927.42
612.46	3985.93
612.62	3864.22
612.77	4002.32
612.92	3927.42
613.08	4032.74
613.23	3913.38
613.39	3651.24
613.54	3705.07
613.69	3861.88
613.85	3831.46
614.00	3772.94
614.15	3770.60
614.31	3822.09
614.46	3805.71
614.62	3829.12
614.77	3985.93
614.92	3723.79
615.08	3882.95
615.23	3756.56
615.38	3772.94
615.54	3672.30
615.69	3592.72
615.84	3658.26
616.00	3506.12
616.15	3468.67
616.30	3524.85
616.46	3543.57
616.61	3616.13
616.76	3555.27
616.92	3529.53
617.07	3632.51
617.22	3716.77
617.37	3602.08
617.53	3693.37
617.68	3698.05
617.83	3695.71
617.99	3758.90
618.14	3611.45
618.29	3695.71
618.45	3674.64
618.60	3597.40
618.75	3585.70
618.90	3630.17
619.06	3487.40
619.21	3599.74
619.36	3562.30
619.51	3719.11
619.67	3721.45
619.82	3660.60
619.97	3873.59
620.12	3709.75
620.28	3721.45
620.43	3669.96
620.58	3667.62
620.73	3625.49
620.89	3599.74
621.04	3611.45
621.19	3583.36
621.34	3538.89
621.49	3618.47
621.65	3499.10
621.80	3503.78
621.95	3445.27
622.10	3595.06
622.25	3538.89
622.41	3421.86
622.56	3372.71
622.71	3421.86
622.86	3405.48
623.01	3440.59
623.16	3428.88
623.32	3375.05
623.47	3328.24
623.62	3508.46
623.77	3403.14
623.92	3515.48
624.07	3473.36
624.23	3295.47
624.38	3349.31
624.53	3304.84
624.68	3169.09
624.83	3262.71
624.98	3164.40
625.13	3279.09
625.29	3101.21
625.44	3211.22
625.59	3316.54
625.74	3225.26
625.89	3318.88
626.04	3349.31
626.19	3300.16
626.34	3220.58
626.49	3199.51
626.65	3169.09
626.80	3178.45
626.95	3229.94
627.10	3091.85
627.25	3138.66
627.40	2951.42
627.55	3091.85
627.70	2944.39
627.85	2935.03
628.00	3035.67
628.15	3098.87
628.30	3164.40
628.45	3155.04
628.60	2991.20
628.76	3075.46
628.91	3096.53
629.06	3030.99
629.21	3112.91
629.36	3068.44
629.51	2960.78
629.66	2967.80
629.81	2888.22
629.96	3033.33
630.11	3148.02
630.26	3115.25
630.41	3019.29
630.56	3035.67
630.71	3061.42
630.86	3016.95
631.01	2972.48
631.16	2972.48
631.31	2855.45
631.46	2822.69
631.61	2883.54
631.76	2913.97
631.91	2860.13
632.06	2918.65
632.21	3023.97
632.36	3038.02
632.51	3033.33
632.66	3056.74
632.81	3038.02
632.96	2832.05
633.10	2995.89
633.25	2820.35
633.40	2979.50
633.55	2928.01
633.70	2855.45
633.85	2942.05
634.00	2864.82
634.15	2860.13
634.30	2871.84
634.45	3014.61
634.60	2878.86
634.75	2935.03
634.90	2785.24
635.05	2942.05
635.19	2892.90
635.34	2981.84
635.49	2888.22
635.64	2949.08
635.79	2883.54
635.94	2757.15
636.09	2757.15
636.24	2885.88
636.39	2890.56
636.53	2787.58
636.68	2867.16
636.83	2813.32
636.98	2979.50
637.13	2839.07
637.28	2963.12
637.43	2829.71
637.57	2881.20
637.72	2808.64
637.87	2916.31
638.02	2822.69
638.17	2981.84
638.32	2885.88
638.46	2637.78
638.61	2792.26
638.76	2913.97
638.91	2764.17
639.06	2836.73
639.20	2679.91
639.35	2834.39
639.50	2703.32
639.65	2663.53
639.80	2635.44
639.94	2686.94
640.09	2773.53
640.24	2738.43
640.39	2722.04
640.54	2708.00
640.68	2705.66
640.83	2670.55
640.98	2733.75
641.13	2642.46
641.27	2523.10
641.42	2691.62
641.57	2588.63
641.72	2588.63
641.86	2677.57
642.01	2574.59
642.16	2628.42
642.31	2682.25
642.45	2719.70
642.60	2658.85
642.75	2635.44
642.90	2691.62
643.04	2544.16
643.19	2668.21
643.34	2619.06
643.48	2504.37
643.63	2579.27
643.78	2553.52
643.93	2544.16
644.07	2644.81
644.22	2738.43
644.37	2668.21
644.51	2527.78
644.66	2602.68
644.81	2452.88
644.95	2551.18
645.10	2485.65
645.25	2569.91
645.39	2558.21
645.54	2567.57
645.69	2476.29
645.83	2464.58
645.98	2466.92
646.13	2436.50
646.27	2520.76
646.42	2452.88
646.57	2492.67
646.71	2464.58
646.86	2464.58
647.00	2354.58
647.15	2363.94
647.30	2392.03
647.44	2406.07
647.59	2377.98
647.74	2356.92
647.88	2342.88
648.03	2347.56
648.17	2305.43
648.32	2338.20
648.47	2385.01
648.61	2307.77
648.76	2253.94
648.90	2265.64
649.05	2326.49
649.20	2127.55
649.34	2209.47
649.49	2052.65
649.63	2307.77
649.78	2270.32
649.92	2225.85
650.07	2382.67
650.21	2347.56
650.36	2340.54
650.51	2469.27
650.65	2352.24
650.80	2352.24
650.94	2300.75
651.09	2333.51
651.23	2211.81
651.38	2239.89
651.52	2136.91
651.67	2298.41
651.81	2303.09
651.96	2434.16
652.10	2228.19
652.25	2277.34
652.39	2345.22
652.54	2183.72
652.68	2342.88
652.83	2361.60
652.97	2331.17
653.12	2368.62
653.26	2279.68
653.41	2242.23
653.55	2246.91
653.70	2389.69
653.84	2249.25
653.99	2202.44
654.13	2239.89
654.27	2279.68
654.42	2141.59
654.56	2188.40
654.71	2148.61
654.85	2139.25
655.00	2036.27
655.14	2134.57
655.29	2022.22
655.43	2092.44
655.57	1980.09
655.72	1825.62
655.86	1708.59
656.01	1547.09
656.15	1537.73
656.30	1739.02
656.44	1734.34
656.58	1788.17
656.73	1935.62
656.87	1970.73
657.01	1888.81
657.16	1937.96
657.30	2008.18
657.45	2160.31
657.59	2120.53
657.73	2003.50
657.88	2059.67
658.02	2157.97
658.16	2150.95
658.31	2033.93
658.45	2202.44
658.60	2122.87
658.74	2071.37
658.88	2092.44
659.03	2083.08
659.17	2092.44
659.31	2059.67
659.46	2064.35
659.60	2167.34
659.74	2125.21
659.89	2097.12
660.03	2157.97
660.17	2169.68
660.32	2001.16
660.46	2090.10
660.60	1961.37
660.74	1996.48
660.89	2040.95
661.03	2054.99
661.17	2033.93
661.32	2047.97
661.46	2001.16
661.60	2101.80
661.74	2099.46
661.89	2010.52
662.03	1998.82
662.17	2038.61
662.31	2050.31
662.46	2106.48
662.60	2003.50
662.74	1881.79
662.88	1888.81
663.03	1947.33
663.17	1907.54
663.31	1923.92
663.45	1783.49
663.60	1818.60
663.74	1991.80
663.88	1980.09
664.02	2040.95
664.17	1884.13
664.31	1989.46
664.45	1947.33
664.59	1994.14
664.73	1935.62
664.88	2003.50
665.02	1905.20
665.16	1935.62
665.30	1944.99
665.44	1940.30
665.59	1947.33
665.73	1956.69
665.87	1942.64
666.01	1902.86
666.15	1734.34
666.29	1919.24
666.44	1860.73
666.58	1771.79
666.72	1788.17
666.86	1940.30
667.00	1886.47
667.14	1879.45
667.28	1706.25
667.43	1895.83
667.57	1774.13
667.71	1790.51
667.85	1811.57
667.99	1755.40
668.13	1959.03
668.27	1914.56
668.41	1771.79
668.56	1757.74
668.70	1783.49
668.84	1739.02
668.98	1708.59
669.12	1753.06
669.26	1785.83
669.40	1755.40
669.54	1783.49
669.68	1689.87
669.82	1706.25
669.96	1729.66
670.10	1710.93
670.25	1675.82
670.39	1736.68
670.53	1636.03
670.67	1659.44
670.81	1687.53
670.95	1724.97
671.09	1577.52
671.23	1631.35
671.37	1575.18
671.51	1682.85
671.65	1741.36
671.79	1643.06
671.93	1661.78
672.07	1724.97
672.21	1582.20
672.35	1668.80
672.49	1631.35
672.63	1647.74
672.77	1678.16
672.91	1778.81
673.05	1610.29
673.19	1598.59
673.33	1621.99
673.47	1558.80
673.61	1610.29
673.75	1533.05
673.89	1633.69
674.03	1519.01
674.17	1678.16
674.31	1584.54
674.45	1666.46
674.59	1558.80
674.73	1605.61
674.87	1579.86
675.01	1483.90
675.15	1528.37
675.29	1593.90
675.43	1558.80
675.56	1542.41
675.70	1533.05
675.84	1497.94
675.98	1570.50
676.12	1483.90
676.26	1462.83
676.40	1572.84
676.54	1577.52
676.68	1516.67
676.82	1523.69
676.96	1493.26
677.10	1526.03
677.23	1453.47
677.37	1458.15
677.51	1486.24
677.65	1565.82
677.79	1390.28
677.93	1432.41
678.07	1472.20
678.21	1380.92
678.34	1453.47
678.48	1453.47
678.62	1355.17
678.76	1437.09
678.90	1273.25
679.04	1331.76
679.18	1416.02
679.31	1378.58
679.45	1378.58
679.59	1320.06
679.73	1284.95
679.87	1268.57
680.00	1425.39
680.14	1327.08
680.28	1266.23
680.42	1343.47
680.56	1299.00
680.70	1261.55
680.83	1287.29
680.97	1322.40
681.11	1366.87
681.25	1282.61
681.39	1343.47
681.52	1233.46
681.66	1282.61
681.80	1315.38
681.94	1212.40
682.07	1228.78
682.21	1399.64
682.35	1359.85
682.49	1196.01
682.62	1179.63
682.76	1275.59
682.90	1177.29
683.04	1245.16
683.17	1116.44
683.31	1081.33
683.45	1233.46
683.59	1205.38
683.72	1165.59
683.86	1142.18
684.00	1160.91
684.13	1128.14
684.27	1111.75
684.41	1107.07
684.55	1064.94
684.68	1165.59
684.82	1064.94
684.96	1139.84
685.09	1205.38
685.23	966.64
685.37	1121.12
685.50	1118.78
685.64	1158.57
685.78	1043.88
685.91	1069.62
686.05	1090.69
686.19	1043.88
686.32	1008.77
686.46	800.46
686.60	784.08
686.73	676.41
686.87	582.79
687.01	491.51
687.14	599.18
687.28	557.05
687.42	697.48
687.55	699.82
687.69	791.10
687.82	798.12
687.96	837.91
688.10	875.36
688.23	880.04
688.37	844.93
688.50	770.04
688.64	697.48
688.78	777.06
688.91	755.99
689.05	758.33
689.18	755.99
689.32	737.27
689.46	669.39
689.59	681.10
689.73	830.89
689.86	732.59
690.00	664.71
690.13	795.78
690.27	807.48
690.41	835.57
690.54	805.14
690.68	777.06
690.81	725.57
690.95	716.20
691.08	798.12
691.22	786.42
691.35	786.42
691.49	727.91
691.62	737.27
691.76	830.89
691.89	777.06
692.03	767.70
692.16	777.06
692.30	706.84
692.43	723.23
692.57	765.36
692.70	748.97
692.84	695.14
692.97	718.54
693.11	671.73
693.24	716.20
693.38	746.63
693.51	648.33
693.65	667.05
693.78	650.67
693.92	676.41
694.05	636.63
694.19	667.05
694.32	685.78
694.45	674.07
694.59	667.05
694.72	568.75
694.86	667.05
694.99	685.78
695.13	697.48
695.26	695.14
695.39	648.33
695.53	657.69
695.66	603.86
695.80	589.82
695.93	610.88
696.07	667.05
696.20	596.84
696.33	660.03
696.47	685.78
696.60	697.48
696.73	638.97
696.87	615.56
697.00	709.18
697.14	767.70
697.27	732.59
697.40	585.13
697.54	629.60
697.67	620.24
697.80	601.52
697.94	571.09
698.07	599.18
698.21	568.75
698.34	660.03
698.47	641.31
698.61	554.71
698.74	575.77
698.87	638.97
699.01	571.09
699.14	479.81
699.27	510.24
699.40	617.90
699.54	568.75
699.67	550.03
699.80	484.49
699.94	456.40
700.07	524.28
700.20	545.34
700.34	428.32
700.47	447.04
700.60	472.79
700.73	528.96
700.87	463.43
701.00	491.51
701.13	489.17
701.26	470.45
701.40	442.36
701.53	465.77
701.66	514.92
701.79	491.51
701.93	440.02
702.06	468.11
702.19	477.47
702.32	531.30
702.46	470.45
702.59	454.06
702.72	428.32
702.85	428.32
702.99	482.15
703.12	437.68
703.25	496.19
703.38	430.66
703.51	430.66
703.65	442.36
703.78	355.76
703.91	451.72
704.04	442.36
704.17	442.36
704.31	372.15
704.44	409.59
704.57	475.13
704.70	428.32
704.83	425.98
704.96	376.83
705.10	451.72
705.23	372.15
>>>>>End Processed Spectral Data<<<<<
