SpectraSuite Data File
++++++++++++++++++++++++++++++++++++
Date: Mon Oct 07 14:54:56 GMT-05:00 2013
User: price-jones
Dark Spectrum Present: No
Reference Spectrum Present: No
Number of Sampled Component Spectra: 1
Spectrometers: USB2+H05261
Integration Time (usec): 10000 (USB2+H05261)
Spectra Averaged: 1 (USB2+H05261)
Boxcar Smoothing: 0 (USB2+H05261)
Correct for Electrical Dark: No (USB2+H05261)
Strobe/Lamp Enabled: No (USB2+H05261)
Correct for Detector Non-linearity: No (USB2+H05261)
Correct for Stray Light: No (USB2+H05261)
Number of Pixels in Processed Spectrum: 2048
>>>>>Begin Processed Spectral Data<<<<<
365.73	0.00
365.92	0.00
366.12	0.00
366.32	0.00
366.52	0.00
366.72	0.00
366.91	0.00
367.11	0.00
367.31	0.00
367.51	0.00
367.70	0.00
367.90	0.00
368.10	0.00
368.30	0.00
368.49	0.00
368.69	0.00
368.89	0.00
369.09	0.00
369.28	0.00
369.48	0.00
369.68	0.00
369.87	0.00
370.07	0.00
370.27	0.00
370.47	0.00
370.66	145.11
370.86	175.54
371.06	201.29
371.25	259.80
371.45	198.95
371.65	187.24
371.84	51.49
372.04	117.03
372.24	245.76
372.44	234.05
372.63	210.65
372.83	161.50
373.03	177.88
373.22	98.30
373.42	135.75
373.62	271.50
373.81	166.18
374.01	191.92
374.21	175.54
374.40	259.80
374.60	177.88
374.79	287.89
374.99	285.55
375.19	306.61
375.38	306.61
375.58	311.29
375.78	290.23
375.97	358.10
376.17	327.68
376.37	313.63
376.56	245.76
376.76	304.27
376.95	409.59
377.15	421.30
377.35	484.49
377.54	430.66
377.74	421.30
377.93	461.09
378.13	451.72
378.33	381.51
378.52	346.40
378.72	404.91
378.91	411.93
379.11	320.65
379.31	351.08
379.50	290.23
379.70	369.80
379.89	409.59
380.09	435.34
380.28	524.28
380.48	482.15
380.68	484.49
380.87	468.11
381.07	440.02
381.26	257.46
381.46	400.23
381.65	294.91
381.85	269.16
382.04	234.05
382.24	173.20
382.43	173.20
382.63	175.54
382.83	196.60
383.02	126.39
383.22	189.58
383.41	243.42
383.61	208.31
383.80	229.37
384.00	367.46
384.19	433.00
384.39	468.11
384.58	454.06
384.78	470.45
384.97	479.81
385.17	400.23
385.36	320.65
385.56	367.46
385.75	299.59
385.95	430.66
386.14	521.94
386.34	550.03
386.53	447.04
386.72	435.34
386.92	425.98
387.11	442.36
387.31	482.15
387.50	468.11
387.70	430.66
387.89	435.34
388.09	421.30
388.28	451.72
388.48	407.25
388.67	477.47
388.86	613.22
389.06	653.01
389.25	695.14
389.45	678.76
389.64	650.67
389.84	641.31
390.03	653.01
390.22	578.11
390.42	786.42
390.61	683.44
390.81	774.72
391.00	795.78
391.19	847.27
391.39	753.65
391.58	788.76
391.78	608.54
391.97	653.01
392.16	631.94
392.36	580.45
392.55	278.52
392.75	196.60
392.94	131.07
393.13	198.95
393.33	273.84
393.52	369.80
393.71	465.77
393.91	592.16
394.10	645.99
394.29	716.20
394.49	706.84
394.68	781.74
394.88	891.74
395.07	929.19
395.26	837.91
395.46	821.53
395.65	903.45
395.84	664.71
396.04	468.11
396.23	372.15
396.42	271.50
396.62	299.59
396.81	301.93
397.00	514.92
397.19	664.71
397.39	805.14
397.58	997.07
397.77	997.07
397.97	1064.94
398.16	1179.63
398.35	1172.61
398.55	1163.25
398.74	1280.27
398.93	1196.01
399.12	1186.65
399.32	1235.80
399.51	1203.04
399.70	1390.28
399.90	1387.94
400.09	1310.70
400.28	1240.48
400.47	1334.11
400.67	1394.96
400.86	1486.24
401.05	1476.88
401.24	1458.15
401.44	1507.30
401.63	1495.60
401.82	1493.26
402.01	1483.90
402.21	1490.92
402.40	1516.67
402.59	1460.49
402.78	1336.45
402.97	1306.02
403.17	1359.85
403.36	1479.22
403.55	1600.93
403.74	1537.73
403.93	1474.54
404.13	1376.24
404.32	1245.16
404.51	1392.62
404.70	1549.43
404.89	1469.86
405.09	1563.48
405.28	1451.13
405.47	1390.28
405.66	1394.96
405.85	1392.62
406.05	1394.96
406.24	1425.39
406.43	1425.39
406.62	1467.52
406.81	1483.90
407.00	1486.24
407.20	1397.30
407.39	1441.77
407.58	1502.62
407.77	1589.22
407.96	1638.38
408.15	1619.65
408.34	1631.35
408.54	1879.45
408.73	1685.19
408.92	1715.61
409.11	1699.23
409.30	1577.52
409.49	1420.71
409.68	1376.24
409.87	1334.11
410.07	1373.89
410.26	1549.43
410.45	1682.85
410.64	1689.87
410.83	1713.27
411.02	1706.25
411.21	1802.21
411.40	1753.06
411.59	1839.66
411.78	1757.74
411.98	1858.39
412.17	1741.36
412.36	1753.06
412.55	1839.66
412.74	1659.44
412.93	1666.46
413.12	1748.38
413.31	1832.64
413.50	1872.43
413.69	1886.47
413.88	1827.96
414.07	1926.26
414.26	1839.66
414.45	1914.56
414.64	1874.77
414.83	1879.45
415.02	1769.44
415.22	1874.77
415.41	1954.35
415.60	1961.37
415.79	1998.82
415.98	2092.44
416.17	1935.62
416.36	2008.18
416.55	2047.97
416.74	1989.46
416.93	1804.55
417.12	1788.17
417.31	1856.04
417.50	2019.88
417.69	1921.58
417.88	1968.39
418.07	1926.26
418.26	1930.94
418.45	1891.15
418.64	2045.63
418.83	2146.27
419.02	2132.23
419.21	1984.77
419.39	1823.28
419.58	1781.15
419.77	1851.36
419.96	1858.39
420.15	2003.50
420.34	2099.46
420.53	2183.72
420.72	2253.94
420.91	2244.57
421.10	2174.36
421.29	2270.32
421.48	2104.14
421.67	2214.15
421.86	2099.46
422.05	1944.99
422.24	1652.42
422.43	1614.97
422.61	1842.00
422.80	2050.31
422.99	2094.78
423.18	2022.22
423.37	1926.26
423.56	1989.46
423.75	1982.43
423.94	2078.40
424.13	1926.26
424.32	1963.71
424.50	1877.11
424.69	1888.81
424.88	1879.45
425.07	1834.98
425.26	1928.60
425.45	1989.46
425.64	1942.64
425.83	1898.17
426.01	2017.54
426.20	2113.50
426.39	2038.61
426.58	1893.49
426.77	1713.27
426.96	1603.27
427.15	1600.93
427.33	1867.75
427.52	1902.86
427.71	1942.64
427.90	1916.90
428.09	1940.30
428.28	1795.19
428.46	1774.13
428.65	1727.32
428.84	1778.81
429.03	1799.87
429.22	1753.06
429.40	1727.32
429.59	1486.24
429.78	1212.40
429.97	1291.98
430.16	1306.02
430.34	1193.67
430.53	1277.93
430.72	1226.44
430.91	1511.99
431.10	1830.30
431.28	2136.91
431.47	2289.04
431.66	2312.45
431.85	2120.53
432.03	1930.94
432.22	1959.03
432.41	1895.83
432.60	2143.93
432.79	2225.85
432.97	2267.98
433.16	2349.90
433.35	2001.16
433.54	1874.77
433.72	1640.72
433.91	1668.80
434.10	1959.03
434.28	2155.63
434.47	2275.00
434.66	2258.62
434.85	2153.29
435.03	2263.30
435.22	2174.36
435.41	2307.77
435.59	2359.26
435.78	2368.62
435.97	2338.20
436.16	2509.05
436.34	2270.32
436.53	2389.69
436.72	2352.24
436.90	2111.16
437.09	2279.68
437.28	2188.40
437.46	2359.26
437.65	2139.25
437.84	2043.29
438.02	1942.64
438.21	1767.10
438.40	1970.73
438.58	2150.95
438.77	2193.08
438.96	2296.07
439.14	2312.45
439.33	2422.45
439.52	2417.77
439.70	2457.56
439.89	2345.22
440.08	2258.62
440.26	2263.30
440.45	2396.71
440.63	2476.29
440.82	2605.02
441.01	2586.29
441.19	2569.91
441.38	2555.86
441.57	2743.11
441.75	2815.66
441.94	2693.96
442.12	2705.66
442.31	2792.26
442.50	2902.26
442.68	2689.28
442.87	2846.09
443.05	2682.25
443.24	2747.79
443.43	2834.39
443.61	2810.98
443.80	2834.39
443.98	2626.08
444.17	2640.12
444.35	2820.35
444.54	2911.63
444.73	2944.39
444.91	2675.23
445.10	2656.51
445.28	2593.31
445.47	2497.35
445.65	2452.88
445.84	2640.12
446.02	2548.84
446.21	2672.89
446.39	2670.55
446.58	2637.78
446.77	2710.34
446.95	2853.11
447.14	2876.52
447.32	2913.97
447.51	2916.31
447.69	2736.09
447.88	2822.69
448.06	2621.40
448.25	2935.03
448.43	2848.43
448.62	2764.17
448.80	2745.45
448.99	2895.24
449.17	2836.73
449.36	2848.43
449.54	2993.55
449.73	2909.29
449.91	2939.71
450.10	3082.49
450.28	3045.04
450.46	3054.40
450.65	3040.36
450.83	3026.31
451.02	2988.86
451.20	2981.84
451.39	2904.60
451.57	2888.22
451.76	3014.61
451.94	2979.50
452.13	2899.92
452.31	2846.09
452.49	2605.02
452.68	2647.15
452.86	2747.79
453.05	2619.06
453.23	2836.73
453.42	2839.07
453.60	3007.59
453.78	3021.63
453.97	2984.18
454.15	2857.79
454.34	2885.88
454.52	2792.26
454.70	2836.73
454.89	2808.64
455.07	2789.92
455.26	2846.09
455.44	3166.74
455.62	3145.68
455.81	3098.87
455.99	3028.65
456.17	3038.02
456.36	3089.51
456.54	3073.12
456.73	3171.43
456.91	3187.81
457.09	3176.11
457.28	3349.31
457.46	3042.70
457.64	3073.12
457.83	2993.55
458.01	2925.67
458.19	3019.29
458.38	2937.37
458.56	3070.78
458.74	3098.87
458.93	3059.08
459.11	2885.88
459.29	2970.14
459.48	3047.38
459.66	2967.80
459.84	3169.09
460.03	2930.35
460.21	3101.21
460.39	3288.45
460.57	3061.42
460.76	3098.87
460.94	3286.11
461.12	3136.32
461.31	3222.92
461.49	3225.26
461.67	3190.15
461.85	3288.45
462.04	3229.94
462.22	3269.73
462.40	3122.27
462.59	3255.69
462.77	3155.04
462.95	3159.72
463.13	3164.40
463.32	3143.34
463.50	3176.11
463.68	3089.51
463.86	3129.30
464.05	3204.19
464.23	3019.29
464.41	3023.97
464.59	3122.27
464.78	3105.89
464.96	3220.58
465.14	3073.12
465.32	3178.45
465.50	3274.41
465.69	3183.13
465.87	3038.02
466.05	3021.63
466.23	2986.52
466.41	2834.39
466.60	2972.48
466.78	3052.06
466.96	3183.13
467.14	3054.40
467.32	3126.96
467.51	3068.44
467.69	3042.70
467.87	2897.58
468.05	2993.55
468.23	3080.14
468.41	3059.08
468.60	3096.53
468.78	3098.87
468.96	2916.31
469.14	3204.19
469.32	3014.61
469.50	3073.12
469.69	2902.26
469.87	2892.90
470.05	2963.12
470.23	2981.84
470.41	2946.73
470.59	3096.53
470.77	3110.57
470.95	3124.62
471.14	3143.34
471.32	3056.74
471.50	3276.75
471.68	3426.54
471.86	3571.66
472.04	3344.63
472.22	3475.70
472.40	3262.71
472.58	3087.17
472.77	3066.10
472.95	3323.56
473.13	3424.20
473.31	3206.53
473.49	3243.98
473.67	3295.47
473.85	3288.45
474.03	3452.29
474.21	3513.14
474.39	3550.59
474.57	3431.23
474.75	3316.54
474.93	3379.73
475.12	3204.19
475.30	3417.18
475.48	3325.90
475.66	3377.39
475.84	3382.07
476.02	3494.42
476.20	3316.54
476.38	3344.63
476.56	3510.80
476.74	3487.40
476.92	3480.38
477.10	3585.70
477.28	3824.44
477.46	3705.07
477.64	3723.79
477.82	3599.74
478.00	3826.78
478.18	3836.14
478.36	3653.58
478.54	3660.60
478.72	3672.30
478.90	3922.74
479.08	3794.01
479.26	3995.29
479.44	4018.70
479.62	3960.19
479.80	3770.60
479.98	3936.78
480.16	4025.72
480.34	3927.42
480.52	3896.99
480.70	4046.79
480.88	4002.32
481.06	3967.21
481.24	4021.04
481.41	4107.64
481.59	4241.05
481.77	4229.35
481.95	4112.32
482.13	4194.24
482.31	4166.15
482.49	4203.60
482.67	4191.90
482.85	4182.54
483.03	4147.43
483.21	4318.29
483.39	4322.97
483.57	4189.56
483.74	4147.43
483.92	4149.77
484.10	4180.20
484.28	4477.44
484.46	4395.53
484.64	4496.17
484.82	4369.78
485.00	4191.90
485.18	4236.37
485.35	4032.74
485.53	3758.90
485.71	3335.26
485.89	3405.48
486.07	3555.27
486.25	3765.92
486.43	3999.98
486.61	4131.05
486.78	4208.28
486.96	4161.47
487.14	4315.95
487.32	4498.51
487.50	4592.13
487.68	4779.37
487.85	4791.08
488.03	4540.64
488.21	4760.65
488.39	4648.30
488.57	4493.83
488.75	4580.43
488.92	4454.04
489.10	5025.13
489.28	5088.32
489.46	5263.86
489.64	5142.16
489.81	5416.00
489.99	5193.65
490.17	5114.07
490.35	5352.81
490.53	5259.18
490.70	5095.35
490.88	5174.92
491.06	5210.03
491.24	5200.67
491.41	5041.51
491.59	4709.16
491.77	4725.54
491.95	4898.74
492.13	5149.18
492.30	5313.02
492.48	5490.90
492.66	5392.59
492.84	5469.83
493.01	5462.81
493.19	5334.08
493.37	5420.68
493.54	5284.93
493.72	5371.53
493.90	5500.26
494.08	5659.42
494.25	5832.62
494.43	5851.34
494.61	5849.00
494.79	5891.13
494.96	5795.17
495.14	5743.67
495.32	5577.50
495.49	5310.68
495.67	5483.88
495.85	5944.96
496.02	5809.21
496.20	6001.13
496.38	5769.42
496.55	5891.13
496.73	5935.60
496.91	6064.33
497.09	6204.76
497.26	6050.28
497.44	5954.32
497.62	5872.40
497.79	5727.29
497.97	5504.94
498.14	5579.84
498.32	5837.30
498.50	5872.40
498.67	5977.73
498.85	6003.47
499.03	5942.62
499.20	6047.94
499.38	6176.67
499.56	5987.09
499.73	5788.14
499.91	5729.63
500.08	5636.01
500.26	5624.31
500.44	5799.85
500.61	5720.27
500.79	5767.08
500.97	5671.12
501.14	5668.78
501.32	5462.81
501.49	5509.62
501.67	5717.93
501.84	5717.93
502.02	5888.79
502.20	5802.19
502.37	5874.74
502.55	5991.77
502.72	6064.33
502.90	6181.35
503.07	6118.16
503.25	6031.56
503.43	5980.07
503.60	5699.20
503.78	5633.67
503.95	5748.36
504.13	5940.28
504.30	6305.40
504.48	5968.37
504.65	6012.84
504.83	6122.84
505.01	6033.90
505.18	6209.44
505.36	6366.26
505.53	6417.75
505.71	6445.84
505.88	6380.30
506.06	6310.08
506.23	6209.44
506.41	6029.22
506.58	6207.10
506.76	6164.97
506.93	6230.51
507.11	6038.58
507.28	6197.74
507.46	6179.01
507.63	5867.72
507.81	5671.12
507.98	5947.30
508.16	6148.59
508.33	6169.65
508.50	6340.51
508.68	6424.77
508.85	6462.22
509.03	6445.84
509.20	6361.58
509.38	6157.95
509.55	5933.26
509.73	6026.88
509.90	6122.84
510.08	6157.95
510.25	6001.13
510.42	6143.91
510.60	6073.69
510.77	6214.12
510.95	6242.21
511.12	6345.19
511.30	6504.35
511.47	6527.75
511.64	6616.69
511.82	6562.86
511.99	6267.95
512.17	6179.01
512.34	6015.18
512.51	6090.07
512.69	6195.40
512.86	6143.91
513.04	6445.84
513.21	6235.19
513.38	6087.73
513.56	5975.39
513.73	5898.15
513.90	6073.69
514.08	6031.56
514.25	5923.90
514.43	6136.88
514.60	6143.91
514.77	6029.22
514.95	6150.93
515.12	6127.52
515.29	6118.16
515.47	6253.91
515.64	6406.05
515.81	5951.98
515.99	6047.94
516.16	5762.40
516.33	5104.71
516.51	5081.30
516.68	4929.17
516.85	4889.38
517.03	4812.14
517.20	5355.15
517.37	5921.56
517.54	6164.97
517.72	6171.99
517.89	5518.98
518.06	4968.96
518.24	4947.89
518.41	5451.11
518.58	5753.04
518.75	5884.11
518.93	5902.83
519.10	5650.05
519.27	5851.34
519.45	6015.18
519.62	6029.22
519.79	6183.70
519.96	6167.31
520.14	6026.88
520.31	5650.05
520.48	5692.18
520.65	5886.45
520.83	6157.95
521.00	6204.76
521.17	6352.21
521.34	5888.79
521.52	6265.61
521.69	6090.07
521.86	6129.86
522.03	6471.58
522.20	6181.35
522.38	5710.91
522.55	5727.29
522.72	5743.67
522.89	5991.77
523.07	6078.37
523.24	6054.97
523.41	6321.79
523.58	6466.90
523.75	6487.96
523.92	6403.71
524.10	6324.13
524.27	6392.00
524.44	6382.64
524.61	6373.28
524.78	6338.17
524.96	6403.71
525.13	6277.32
525.30	6218.80
525.47	6384.98
525.64	6438.81
525.81	6099.44
525.98	5811.55
526.16	5617.29
526.33	5329.40
526.50	5303.65
526.67	5357.49
526.84	5371.53
527.01	5673.46
527.18	5790.49
527.36	6066.67
527.53	6253.91
527.70	6490.31
527.87	6272.64
528.04	6111.14
528.21	6108.80
528.38	6162.63
528.55	6342.85
528.72	6504.35
528.89	6539.46
529.07	6581.59
529.24	6310.08
529.41	6113.48
529.58	5968.37
529.75	5886.45
529.92	6047.94
530.09	6157.95
530.26	6359.24
530.43	6415.41
530.60	6546.48
530.77	6572.22
530.94	6661.16
531.11	6450.52
531.28	6202.42
531.46	6143.91
531.63	6258.59
531.80	6232.85
531.97	6256.25
532.14	6057.31
532.31	5717.93
532.48	5664.10
532.65	5446.43
532.82	5657.07
532.99	6153.27
533.16	6076.03
533.33	6291.36
533.50	6258.59
533.67	6054.97
533.84	5769.42
534.01	6094.76
534.18	6097.10
534.35	6064.33
534.52	6127.52
534.69	6059.65
534.86	6373.28
535.03	6223.48
535.20	6314.77
535.37	6349.87
535.54	6642.44
535.71	6520.73
535.88	6373.28
536.05	6071.35
536.22	6050.28
536.38	5919.21
536.55	5827.93
536.72	5783.46
536.89	5762.40
537.06	6003.47
537.23	6047.94
537.40	6157.95
537.57	6153.27
537.74	6232.85
537.91	6106.46
538.08	6050.28
538.25	6080.71
538.42	6143.91
538.59	6101.78
538.75	5907.51
538.92	5865.38
539.09	5841.98
539.26	5856.02
539.43	5753.04
539.60	5806.87
539.77	5760.06
539.94	5675.80
540.11	5626.65
540.28	5540.05
540.44	5724.95
540.61	5605.58
540.78	5713.25
540.95	5757.72
541.12	5839.64
541.29	5795.17
541.46	6054.97
541.62	5795.17
541.79	5914.53
541.96	5713.25
542.13	5720.27
542.30	5886.45
542.47	5809.21
542.63	5888.79
542.80	5699.20
542.97	5898.15
543.14	5741.33
543.31	5720.27
543.48	5989.43
543.64	6078.37
543.81	6155.61
543.98	6033.90
544.15	5980.07
544.32	5783.46
544.48	5930.92
544.65	5729.63
544.82	6031.56
544.99	5820.91
545.16	5884.11
545.32	5778.78
545.49	5837.30
545.66	5998.79
545.83	5888.79
546.00	6003.47
546.16	5755.38
546.33	5877.09
546.50	5715.59
546.67	5982.41
546.83	5767.08
547.00	5790.49
547.17	5689.84
547.34	5558.77
547.50	5533.03
547.67	5643.03
547.84	5467.49
548.00	5666.44
548.17	5797.51
548.34	5790.49
548.51	5760.06
548.67	5753.04
548.84	5781.12
549.01	5785.80
549.18	5680.48
549.34	5633.67
549.51	5755.38
549.68	5914.53
549.84	5720.27
550.01	5825.59
550.18	5694.52
550.34	5692.18
550.51	5694.52
550.68	5678.14
550.84	5633.67
551.01	5591.54
551.18	5579.84
551.34	5462.81
551.51	5839.64
551.68	5834.96
551.84	5905.17
552.01	5703.89
552.18	5720.27
552.34	5380.89
552.51	5481.53
552.68	5502.60
552.84	5479.19
553.01	5493.24
553.18	5528.35
553.34	5479.19
553.51	5640.69
553.67	5558.77
553.84	5738.99
554.01	5687.50
554.17	5654.73
554.34	5710.91
554.51	5746.02
554.67	5654.73
554.84	5692.18
555.00	5717.93
555.17	5603.24
555.33	5406.64
555.50	5455.79
555.67	5598.56
555.83	5530.69
556.00	5490.90
556.16	5401.96
556.33	5408.98
556.50	5401.96
556.66	5334.08
556.83	5378.55
556.99	5322.38
557.16	5572.82
557.32	5303.65
557.49	5490.90
557.65	5411.32
557.82	5507.28
557.98	5404.30
558.15	5181.95
558.32	5305.99
558.48	5090.67
558.65	5062.58
558.81	5177.26
558.98	5057.90
559.14	5170.24
559.31	5207.69
559.47	5191.31
559.64	5313.02
559.80	5067.26
559.97	4943.21
560.13	5153.86
560.30	5390.25
560.46	5427.70
560.63	5521.32
560.79	5366.85
560.96	5224.08
561.12	5151.52
561.29	5013.43
561.45	5050.88
561.61	5015.77
561.78	5149.18
561.94	5132.79
562.11	5357.49
562.27	5107.05
562.44	5261.52
562.60	5275.57
562.77	5210.03
562.93	5242.80
563.10	5165.56
563.26	5200.67
563.42	5109.39
563.59	5123.43
563.75	5048.54
563.92	5048.54
564.08	5217.05
564.24	5132.79
564.41	5102.37
564.57	5179.61
564.74	5231.10
564.90	5034.49
565.07	4933.85
565.23	4917.47
565.39	4807.46
565.56	4865.97
565.72	4791.08
565.88	4814.48
566.05	4952.57
566.21	4945.55
566.38	5004.07
566.54	4966.62
566.70	5046.20
566.87	4999.38
567.03	4990.02
567.19	5212.37
567.36	5060.24
567.52	4922.15
567.68	4971.30
567.85	4933.85
568.01	4894.06
568.17	4760.65
568.34	4929.17
568.50	4697.46
568.66	4856.61
568.83	4835.55
568.99	4807.46
569.15	4940.87
569.32	4854.27
569.48	4898.74
569.64	4667.03
569.81	4720.86
569.97	4692.77
570.13	4727.88
570.30	4629.58
570.46	4442.34
570.62	4510.21
570.78	4407.23
570.95	4409.57
571.11	4622.56
571.27	4610.86
571.43	4781.71
571.60	4702.14
571.76	4774.69
571.92	4819.16
572.09	4798.10
572.25	4950.23
572.41	4793.42
572.57	4770.01
572.74	4894.06
572.90	4741.93
573.06	4875.34
573.22	4725.54
573.38	4615.54
573.55	4603.83
573.71	4856.61
573.87	4765.33
574.03	4779.37
574.20	4760.65
574.36	4772.35
574.52	4664.69
574.68	4557.02
574.84	4538.30
575.01	4468.08
575.17	4573.41
575.33	4592.13
575.49	4491.49
575.65	4629.58
575.82	4440.00
575.98	4566.39
576.14	4554.68
576.30	4606.17
576.46	4660.01
576.62	4564.04
576.79	4493.83
576.95	4622.56
577.11	4456.38
577.27	4444.68
577.43	4456.38
577.59	4486.81
577.75	4292.54
577.92	4227.01
578.08	4276.16
578.24	4271.48
578.40	4402.55
578.56	4456.38
578.72	4358.08
578.88	4402.55
579.04	4367.44
579.21	4440.00
579.37	4435.32
579.53	4585.11
579.69	4458.72
579.85	4482.13
580.01	4231.69
580.17	4381.48
580.33	4390.84
580.49	4451.70
580.65	4407.23
580.82	4397.87
580.98	4362.76
581.14	4496.17
581.30	4409.57
581.46	4435.32
581.62	4477.44
581.78	4395.53
581.94	4519.57
582.10	4407.23
582.26	4461.06
582.42	4571.07
582.58	4365.10
582.74	4425.95
582.90	4428.29
583.06	4456.38
583.22	4561.70
583.38	4486.81
583.54	4458.72
583.70	4486.81
583.86	4477.44
584.02	4365.10
584.18	4320.63
584.34	4355.74
584.50	4400.21
584.66	4255.09
584.82	4362.76
584.98	4273.82
585.14	4283.18
585.30	4187.22
585.46	4201.26
585.62	4257.43
585.78	4187.22
585.94	4100.62
586.10	4234.03
586.26	4257.43
586.42	4168.49
586.58	4365.10
586.74	4315.95
586.90	4224.67
587.06	4191.90
587.22	4093.60
587.38	4315.95
587.54	4128.70
587.70	4079.55
587.86	4021.04
588.02	4152.11
588.18	3946.14
588.34	3925.08
588.49	3705.07
588.65	3513.14
588.81	3473.36
588.97	3375.05
589.13	3426.54
589.29	3433.57
589.45	3496.76
589.61	3714.43
589.77	3850.18
589.93	3901.67
590.08	3983.59
590.24	4042.11
590.40	3974.23
590.56	4021.04
590.72	4028.06
590.88	3904.01
591.04	3882.95
591.20	3861.88
591.35	3899.33
591.51	3896.99
591.67	3922.74
591.83	3896.99
591.99	3896.99
592.15	3918.06
592.31	3901.67
592.46	3896.99
592.62	3840.82
592.78	3885.29
592.94	3840.82
593.10	3950.82
593.26	3833.80
593.41	3953.16
593.57	3887.63
593.73	3852.52
593.89	3831.46
594.05	3824.44
594.20	3833.80
594.36	3604.42
594.52	3648.90
594.68	3740.18
594.84	3857.20
594.99	3775.28
595.15	3688.68
595.31	3770.60
595.47	3751.88
595.62	3794.01
595.78	3948.48
595.94	3840.82
596.10	3957.85
596.25	3852.52
596.41	3730.81
596.57	3756.56
596.73	3721.45
596.88	3714.43
597.04	3765.92
597.20	3819.75
597.36	3644.21
597.51	3810.39
597.67	3810.39
597.83	3742.52
597.99	3705.07
598.14	3655.92
598.30	3726.13
598.46	3695.71
598.61	3609.11
598.77	3679.32
598.93	3679.32
599.09	3728.47
599.24	3721.45
599.40	3742.52
599.56	3651.24
599.71	3822.09
599.87	3749.54
600.03	3625.49
600.18	3686.34
600.34	3632.51
600.50	3595.06
600.65	3672.30
600.81	3648.90
600.97	3595.06
601.12	3662.94
601.28	3700.39
601.44	3735.50
601.59	3543.57
601.75	3562.30
601.91	3555.27
602.06	3463.99
602.22	3513.14
602.37	3482.72
602.53	3566.98
602.69	3784.65
602.84	3674.64
603.00	3576.34
603.16	3616.13
603.31	3632.51
603.47	3786.99
603.62	3707.41
603.78	3698.05
603.94	3557.61
604.09	3590.38
604.25	3627.83
604.40	3634.85
604.56	3705.07
604.71	3578.68
604.87	3550.59
605.03	3674.64
605.18	3625.49
605.34	3562.30
605.49	3503.78
605.65	3534.21
605.80	3543.57
605.96	3583.36
606.12	3606.77
606.27	3459.31
606.43	3372.71
606.58	3412.50
606.74	3510.80
606.89	3438.25
607.05	3609.11
607.20	3637.19
607.36	3503.78
607.51	3391.44
607.67	3459.31
607.82	3426.54
607.98	3447.61
608.13	3398.46
608.29	3363.35
608.44	3358.67
608.60	3428.88
608.75	3407.82
608.91	3318.88
609.06	3501.44
609.22	3426.54
609.37	3522.51
609.53	3302.50
609.68	3346.97
609.84	3145.68
609.99	3248.66
610.15	3173.77
610.30	3400.80
610.46	3290.79
610.61	3335.26
610.76	3482.72
610.92	3356.33
611.07	3375.05
611.23	3281.43
611.38	3325.90
611.54	3342.28
611.69	3260.37
611.84	3016.95
612.00	3239.30
612.15	3286.11
612.31	3227.60
612.46	3267.39
612.62	3260.37
612.77	3227.60
612.92	3246.32
613.08	3126.96
613.23	3108.23
613.39	3122.27
613.54	2995.89
613.69	3021.63
613.85	3094.19
614.00	3176.11
614.15	3185.47
614.31	3255.69
614.46	3229.94
614.62	3126.96
614.77	3073.12
614.92	3218.24
615.08	3215.90
615.23	3143.34
615.38	3080.14
615.54	3054.40
615.69	2981.84
615.84	2869.50
616.00	2963.12
616.15	2883.54
616.30	2956.10
616.46	2897.58
616.61	2951.42
616.76	2935.03
616.92	3026.31
617.07	2897.58
617.22	3056.74
617.37	3133.98
617.53	3199.51
617.68	3143.34
617.83	3194.83
617.99	3021.63
618.14	2998.23
618.29	3035.67
618.45	3023.97
618.60	2977.16
618.75	2874.18
618.90	2942.05
619.06	3054.40
619.21	2991.20
619.36	3166.74
619.51	2939.71
619.67	2972.48
619.82	3019.29
619.97	3033.33
620.12	2906.95
620.28	2895.24
620.43	3101.21
620.58	2956.10
620.73	3063.76
620.89	2977.16
621.04	2981.84
621.19	2972.48
621.34	2906.95
621.49	2871.84
621.65	2850.77
621.80	2944.39
621.95	2899.92
622.10	2715.02
622.25	2848.43
622.41	2843.75
622.56	2846.09
622.71	2867.16
622.86	2715.02
623.01	2752.47
623.16	2801.62
623.32	2729.06
623.47	2829.71
623.62	2738.43
623.77	2834.39
623.92	2843.75
624.07	2530.12
624.23	2698.64
624.38	2581.61
624.53	2607.36
624.68	2623.74
624.83	2731.41
624.98	2532.46
625.13	2597.99
625.29	2677.57
625.44	2509.05
625.59	2658.85
625.74	2541.82
625.89	2649.49
626.04	2703.32
626.19	2733.75
626.34	2808.64
626.49	2693.96
626.65	2693.96
626.80	2766.51
626.95	2539.48
627.10	2698.64
627.25	2530.12
627.40	2630.76
627.55	2427.14
627.70	2389.69
627.85	2497.35
628.00	2532.46
628.15	2450.54
628.30	2558.21
628.45	2480.97
628.60	2595.65
628.76	2513.74
628.91	2576.93
629.06	2523.10
629.21	2581.61
629.36	2551.18
629.51	2605.02
629.66	2525.44
629.81	2275.00
629.96	2469.27
630.11	2399.05
630.26	2537.14
630.41	2509.05
630.56	2441.18
630.71	2546.50
630.86	2459.90
631.01	2459.90
631.16	2436.50
631.31	2377.98
631.46	2359.26
631.61	2455.22
631.76	2471.61
631.91	2427.14
632.06	2370.96
632.21	2534.80
632.36	2473.95
632.51	2553.52
632.66	2513.74
632.81	2406.07
632.96	2516.08
633.10	2490.33
633.25	2443.52
633.40	2413.09
633.55	2377.98
633.70	2513.74
633.85	2342.88
634.00	2422.45
634.15	2324.15
634.30	2354.58
634.45	2305.43
634.60	2452.88
634.75	2483.31
634.90	2525.44
635.05	2356.92
635.19	2265.64
635.34	2368.62
635.49	2331.17
635.64	2307.77
635.79	2413.09
635.94	2333.51
636.09	2324.15
636.24	2331.17
636.39	2310.11
636.53	2389.69
636.68	2413.09
636.83	2452.88
636.98	2436.50
637.13	2401.39
637.28	2256.28
637.43	2410.75
637.57	2445.86
637.72	2214.15
637.87	2387.35
638.02	2377.98
638.17	2314.79
638.32	2333.51
638.46	2277.34
638.61	2387.35
638.76	2209.47
638.91	2282.02
639.06	2324.15
639.20	2270.32
639.35	2157.97
639.50	2260.96
639.65	2232.87
639.80	2312.45
639.94	2345.22
640.09	2265.64
640.24	2289.04
640.39	2193.08
640.54	2174.36
640.68	2179.04
640.83	2118.18
640.98	2193.08
641.13	2179.04
641.27	2279.68
641.42	2139.25
641.57	2111.16
641.72	2209.47
641.86	2129.89
642.01	2277.34
642.16	2282.02
642.31	2263.30
642.45	2317.13
642.60	2188.40
642.75	2162.66
642.90	2230.53
643.04	2214.15
643.19	2120.53
643.34	2083.08
643.48	2104.14
643.63	2246.91
643.78	2066.69
643.93	2275.00
644.07	2286.70
644.22	2162.66
644.37	2162.66
644.51	2090.10
644.66	2005.84
644.81	2101.80
644.95	2078.40
645.10	1998.82
645.25	2071.37
645.39	2045.63
645.54	2092.44
645.69	1989.46
645.83	1933.28
645.98	2024.56
646.13	1898.17
646.27	2019.88
646.42	2071.37
646.57	2047.97
646.71	1928.60
646.86	1968.39
647.00	1987.11
647.15	1856.04
647.30	2001.16
647.44	1963.71
647.59	1956.69
647.74	1909.88
647.88	1912.22
648.03	1940.30
648.17	1790.51
648.32	1942.64
648.47	1998.82
648.61	2001.16
648.76	1909.88
648.90	1884.13
649.05	1867.75
649.20	1717.95
649.34	1799.87
649.49	1825.62
649.63	1849.02
649.78	1975.41
649.92	1863.07
650.07	2087.76
650.21	1891.15
650.36	1989.46
650.51	1919.24
650.65	1898.17
650.80	1870.09
650.94	1912.22
651.09	1921.58
651.23	1919.24
651.38	1891.15
651.52	1837.32
651.67	1849.02
651.81	1935.62
651.96	1994.14
652.10	1912.22
652.25	1952.01
652.39	1820.94
652.54	1944.99
652.68	1844.34
652.83	1860.73
652.97	1884.13
653.12	1916.90
653.26	1795.19
653.41	1867.75
653.55	2008.18
653.70	1893.49
653.84	1895.83
653.99	1809.23
654.13	1732.00
654.27	1788.17
654.42	1811.57
654.56	1774.13
654.71	1811.57
654.85	1685.19
655.00	1748.38
655.14	1732.00
655.29	1657.10
655.43	1626.67
655.57	1519.01
655.72	1425.39
655.86	1373.89
656.01	1301.34
656.15	1329.42
656.30	1369.21
656.44	1483.90
656.58	1507.30
656.73	1645.40
656.87	1605.61
657.01	1629.01
657.16	1661.78
657.30	1720.29
657.45	1830.30
657.59	1783.49
657.73	1778.81
657.88	1682.85
658.02	1776.47
658.16	1708.59
658.31	1818.60
658.45	1872.43
658.60	1809.23
658.74	1687.53
658.88	1650.08
659.03	1746.04
659.17	1736.68
659.31	1685.19
659.46	1638.38
659.60	1734.34
659.74	1614.97
659.89	1687.53
660.03	1781.15
660.17	1654.76
660.32	1657.10
660.46	1689.87
660.60	1673.48
660.74	1694.55
660.89	1645.40
661.03	1678.16
661.17	1657.10
661.32	1650.08
661.46	1605.61
661.60	1729.66
661.74	1755.40
661.89	1696.89
662.03	1650.08
662.17	1629.01
662.31	1755.40
662.46	1603.27
662.60	1673.48
662.74	1692.21
662.88	1605.61
663.03	1556.46
663.17	1556.46
663.31	1547.09
663.45	1511.99
663.60	1544.75
663.74	1603.27
663.88	1600.93
664.02	1645.40
664.17	1488.58
664.31	1584.54
664.45	1612.63
664.59	1551.78
664.73	1685.19
664.88	1584.54
665.02	1575.18
665.16	1612.63
665.30	1589.22
665.44	1612.63
665.59	1577.52
665.73	1589.22
665.87	1474.54
666.01	1591.56
666.15	1446.45
666.29	1448.79
666.44	1409.00
666.58	1467.52
666.72	1561.14
666.86	1479.22
667.00	1591.56
667.14	1507.30
667.28	1521.35
667.43	1502.62
667.57	1495.60
667.71	1509.65
667.85	1483.90
667.99	1586.88
668.13	1455.81
668.27	1537.73
668.41	1568.16
668.56	1479.22
668.70	1549.43
668.84	1514.33
668.98	1495.60
669.12	1355.17
669.26	1500.28
669.40	1455.81
669.54	1453.47
669.68	1572.84
669.82	1324.74
669.96	1451.13
670.10	1329.42
670.25	1448.79
670.39	1458.15
670.53	1256.87
670.67	1355.17
670.81	1479.22
670.95	1460.49
671.09	1334.11
671.23	1317.72
671.37	1387.94
671.51	1376.24
671.65	1467.52
671.79	1313.04
671.93	1434.75
672.07	1352.83
672.21	1404.32
672.35	1270.91
672.49	1399.64
672.63	1355.17
672.77	1275.59
672.91	1320.06
673.05	1352.83
673.19	1310.70
673.33	1280.27
673.47	1331.76
673.61	1294.32
673.75	1331.76
673.89	1291.98
674.03	1221.76
674.17	1310.70
674.31	1289.64
674.45	1245.16
674.59	1270.91
674.73	1268.57
674.87	1259.21
675.01	1289.64
675.15	1329.42
675.29	1210.06
675.43	1203.04
675.56	1228.78
675.70	1188.99
675.84	1228.78
675.98	1188.99
676.12	1224.10
676.26	1238.14
676.40	1287.29
676.54	1207.72
676.68	1125.80
676.82	1146.86
676.96	1172.61
677.10	1196.01
677.23	1252.19
677.37	1153.88
677.51	1226.44
677.65	1156.22
677.79	1275.59
677.93	1174.95
678.07	1158.57
678.21	1055.58
678.34	1174.95
678.48	1198.35
678.62	1149.20
678.76	1167.93
678.90	1093.03
679.04	1118.78
679.18	1172.61
679.31	1139.84
679.45	1067.28
679.59	1050.90
679.73	1109.41
679.87	1015.79
680.00	1006.43
680.14	1086.01
680.28	1076.65
680.42	1060.26
680.56	1015.79
680.70	1071.97
680.83	983.02
680.97	1090.69
681.11	915.15
681.25	1034.52
681.39	994.73
681.52	1053.24
681.66	1011.11
681.80	1069.62
681.94	1011.11
682.07	1046.22
682.21	1088.35
682.35	1013.45
682.49	1013.45
682.62	980.68
682.76	997.07
682.90	1041.54
683.04	945.58
683.17	976.00
683.31	966.64
683.45	990.05
683.59	915.15
683.72	931.53
683.86	919.83
684.00	889.40
684.13	861.32
684.27	908.13
684.41	992.39
684.55	938.55
684.68	868.34
684.82	828.55
684.96	903.45
685.09	968.98
685.23	912.81
685.37	840.25
685.50	947.92
685.64	753.65
685.78	807.48
685.91	901.11
686.05	908.13
686.19	821.53
686.32	779.40
686.46	718.54
686.60	554.71
686.73	461.09
686.87	479.81
687.01	486.83
687.14	461.09
687.28	486.83
687.42	491.51
687.55	545.34
687.69	512.58
687.82	620.24
687.96	629.60
688.10	669.39
688.23	585.13
688.37	596.84
688.50	561.73
688.64	669.39
688.78	545.34
688.91	589.82
689.05	552.37
689.18	531.30
689.32	599.18
689.46	535.98
689.59	643.65
689.73	716.20
689.86	587.47
690.00	582.79
690.13	552.37
690.27	547.69
690.41	559.39
690.54	657.69
690.68	615.56
690.81	585.13
690.95	627.26
691.08	589.82
691.22	645.99
691.35	533.64
691.49	643.65
691.62	667.05
691.76	505.56
691.89	622.58
692.03	606.20
692.16	578.11
692.30	493.85
692.43	594.50
692.57	617.90
692.70	568.75
692.84	620.24
692.97	566.41
693.11	519.60
693.24	500.87
693.38	622.58
693.51	596.84
693.65	564.07
693.78	557.05
693.92	561.73
694.05	629.60
694.19	589.82
694.32	550.03
694.45	512.58
694.59	608.54
694.72	486.83
694.86	545.34
694.99	505.56
695.13	617.90
695.26	505.56
695.39	596.84
695.53	528.96
695.66	491.51
695.80	461.09
695.93	470.45
696.07	535.98
696.20	561.73
696.33	486.83
696.47	507.90
696.60	444.70
696.73	521.94
696.87	496.19
697.00	580.45
697.14	496.19
697.27	587.47
697.40	535.98
697.54	624.92
697.67	447.04
697.80	550.03
697.94	521.94
698.07	496.19
698.21	461.09
698.34	472.79
698.47	416.62
698.61	428.32
698.74	411.93
698.87	395.55
699.01	519.60
699.14	423.64
699.27	383.85
699.40	472.79
699.54	411.93
699.67	395.55
699.80	386.19
699.94	376.83
700.07	451.72
700.20	322.99
700.34	339.38
700.47	351.08
700.60	369.80
700.73	374.49
700.87	365.12
701.00	374.49
701.13	341.72
701.26	365.12
701.40	348.74
701.53	330.02
701.66	418.96
701.79	383.85
701.93	339.38
702.06	372.15
702.19	351.08
702.32	297.25
702.46	269.16
702.59	362.78
702.72	327.68
702.85	320.65
702.99	355.76
703.12	332.36
703.25	444.70
703.38	435.34
703.51	339.38
703.65	341.72
703.78	346.40
703.91	325.33
704.04	383.85
704.17	332.36
704.31	348.74
704.44	315.97
704.57	339.38
704.70	388.53
704.83	318.31
704.96	304.27
705.10	351.08
705.23	344.06
>>>>>End Processed Spectral Data<<<<<
