SpectraSuite Data File
++++++++++++++++++++++++++++++++++++
Date: Mon Oct 07 14:53:10 GMT-05:00 2013
User: price-jones
Dark Spectrum Present: No
Reference Spectrum Present: No
Number of Sampled Component Spectra: 1
Spectrometers: USB2+H05261
Integration Time (usec): 100000 (USB2+H05261)
Spectra Averaged: 1 (USB2+H05261)
Boxcar Smoothing: 0 (USB2+H05261)
Correct for Electrical Dark: No (USB2+H05261)
Strobe/Lamp Enabled: No (USB2+H05261)
Correct for Detector Non-linearity: No (USB2+H05261)
Correct for Stray Light: No (USB2+H05261)
Number of Pixels in Processed Spectrum: 2048
>>>>>Begin Processed Spectral Data<<<<<
365.73	0.00
365.92	0.00
366.12	0.00
366.32	0.00
366.52	0.00
366.72	0.00
366.91	0.00
367.11	0.00
367.31	0.00
367.51	0.00
367.70	0.00
367.90	0.00
368.10	0.00
368.30	0.00
368.49	0.00
368.69	0.00
368.89	0.00
369.09	0.00
369.28	0.00
369.48	0.00
369.68	0.00
369.87	0.00
370.07	0.00
370.27	0.00
370.47	889.40
370.66	3779.97
370.86	4442.34
371.06	4699.80
371.25	4662.35
371.45	4273.82
371.65	3932.10
371.84	3758.90
372.04	3803.37
372.24	4145.09
372.44	4447.02
372.63	4308.93
372.83	4046.79
373.03	3578.68
373.22	3330.58
373.42	3527.19
373.62	4189.56
373.81	4395.53
374.01	4479.79
374.21	3927.42
374.40	3637.19
374.60	3730.81
374.79	4358.08
374.99	5100.03
375.19	5516.64
375.38	5380.89
375.58	5008.75
375.78	4954.91
375.97	4940.87
376.17	5343.44
376.37	5301.31
376.56	5331.74
376.76	5645.37
376.95	6005.81
377.15	6511.37
377.35	6740.74
377.54	7033.31
377.74	7089.48
377.93	7169.06
378.13	6867.13
378.33	6609.67
378.52	6150.93
378.72	5954.32
378.91	5748.36
379.11	5647.71
379.31	5413.66
379.50	5394.93
379.70	5757.72
379.89	6518.39
380.09	6750.10
380.28	7066.08
380.48	7045.01
380.68	6918.62
380.87	6630.74
381.07	6026.88
381.26	5724.95
381.46	5184.29
381.65	5135.14
381.85	4919.81
382.04	4744.27
382.24	4388.50
382.43	4236.37
382.63	4201.26
382.83	4219.99
383.02	4250.41
383.22	4344.03
383.41	4109.98
383.61	4582.77
383.80	5163.22
384.00	5769.42
384.19	6635.42
384.39	6750.10
384.58	6869.47
384.78	6803.94
384.97	6761.81
385.17	6335.83
385.36	6078.37
385.56	5753.04
385.75	5970.71
385.95	6607.33
386.14	6911.60
386.34	7042.67
386.53	6658.82
386.72	6429.45
386.92	6396.68
387.11	6703.29
387.31	7014.59
387.50	6897.56
387.70	6572.22
387.89	6691.59
388.09	6722.02
388.28	6757.13
388.48	6949.05
388.67	7370.35
388.86	8177.83
389.06	8702.11
389.25	8889.35
389.45	9008.72
389.64	9060.21
389.84	9092.98
390.03	8929.14
390.22	8994.68
390.42	9383.21
390.61	9640.67
390.81	10504.32
391.00	10562.84
391.19	10675.18
391.39	10209.42
391.58	9418.32
391.78	8964.25
391.97	8751.26
392.16	8091.23
392.36	7421.84
392.55	5909.85
392.75	4657.67
392.94	3826.78
393.13	3927.42
393.33	4608.51
393.52	5954.32
393.71	7129.27
393.91	7976.55
394.10	8725.52
394.29	9659.39
394.49	10356.87
394.68	11059.03
394.88	11145.63
395.07	11360.96
395.26	11288.40
395.46	11084.78
395.65	10300.70
395.84	9048.51
396.04	7658.23
396.23	6291.36
396.42	5301.31
396.62	5142.16
396.81	6045.60
397.00	7651.21
397.19	9481.51
397.39	11154.99
397.58	12517.18
397.77	13294.24
397.97	13820.86
398.16	13914.48
398.35	14532.39
398.55	15005.17
398.74	15447.54
398.93	16035.01
399.12	15868.83
399.32	14806.23
399.51	15377.32
399.70	16402.47
399.90	16121.61
400.09	16348.64
400.28	15880.53
400.47	16006.92
400.67	16863.56
400.86	17579.76
401.05	17537.63
401.24	17287.20
401.44	17708.49
401.63	17820.84
401.82	17970.63
402.01	18094.68
402.21	18291.29
402.40	18314.69
402.59	17722.54
402.78	17046.12
402.97	16372.05
403.17	17261.45
403.36	18214.05
403.55	18515.98
403.74	19269.63
403.93	17757.64
404.13	16533.54
404.32	16201.19
404.51	17425.29
404.70	18752.37
404.89	18663.43
405.09	18265.54
405.28	17682.75
405.47	17671.04
405.66	17605.51
405.85	16828.45
406.05	16596.74
406.24	16947.82
406.43	17713.17
406.62	18204.69
406.81	18471.51
407.00	17476.78
407.20	17481.46
407.39	17563.38
407.58	18331.08
407.77	18714.92
407.96	19550.49
408.15	19278.99
408.34	19651.14
408.54	20727.78
408.73	20720.76
408.92	20741.83
409.11	19676.88
409.30	19061.32
409.49	17928.50
409.68	16671.64
409.87	16453.97
410.07	17106.98
410.26	18956.00
410.45	19922.64
410.64	20322.87
410.83	20737.15
411.02	21256.75
411.21	22097.00
411.40	21600.80
411.59	21675.70
411.78	21862.94
411.98	21944.86
412.17	21982.31
412.36	21558.67
412.55	21633.57
412.74	21135.04
412.93	20805.02
413.12	20868.22
413.31	22963.00
413.50	23248.54
413.69	23386.63
413.88	22593.19
414.07	21654.64
414.26	22284.24
414.45	22970.02
414.64	23143.22
414.83	23080.02
415.02	22380.20
415.22	22742.99
415.41	23260.24
415.60	23990.49
415.79	24975.86
415.98	25172.46
416.17	25525.88
416.36	24830.74
416.55	24587.33
416.74	23658.14
416.93	22735.96
417.12	22597.87
417.31	23276.63
417.50	23470.89
417.69	24444.56
417.88	24292.42
418.07	23871.12
418.26	23468.55
418.45	23791.55
418.64	24690.31
418.83	25883.98
419.02	25188.85
419.21	25120.97
419.39	24203.48
419.58	22773.41
419.77	23283.65
419.96	23988.15
420.15	25481.41
420.34	26181.23
420.53	26862.33
420.72	27262.56
420.91	27152.55
421.10	26529.97
421.29	26639.98
421.48	25465.03
421.67	26888.07
421.86	26057.18
422.05	24470.30
422.24	22073.59
422.43	21532.93
422.61	24013.90
422.80	25788.02
422.99	25879.30
423.18	25422.90
423.37	24510.09
423.56	24652.86
423.75	25298.85
423.94	25785.68
424.13	24304.12
424.32	24720.74
424.50	24409.45
424.69	24173.05
424.88	24348.59
425.07	24107.52
425.26	24144.97
425.45	24163.69
425.64	23566.85
425.83	23342.16
426.01	24915.00
426.20	25448.64
426.39	25373.75
426.58	23236.84
426.77	21607.83
426.96	21252.06
427.15	21694.43
427.33	23688.56
427.52	24318.17
427.71	24367.32
427.90	24261.99
428.09	24320.51
428.28	23555.15
428.46	22728.94
428.65	22368.50
428.84	23119.81
429.03	23309.40
429.22	22043.17
429.40	20900.98
429.59	19028.56
429.78	17121.02
429.97	16802.71
430.16	17329.33
430.34	17247.41
430.53	17177.19
430.72	17647.64
430.91	19655.82
431.10	23297.69
431.28	26998.08
431.47	29127.97
431.66	29411.17
431.85	26682.11
432.03	24381.36
432.22	23335.14
432.41	24959.47
432.60	27370.22
432.79	28032.60
432.97	28779.23
433.16	28102.81
433.35	25432.26
433.54	23108.11
433.72	21844.22
433.91	22820.22
434.10	25139.69
434.28	27157.24
434.47	28393.04
434.66	27625.34
434.85	27054.25
435.03	27112.77
435.22	28016.21
435.41	29647.57
435.59	29411.17
435.78	29645.23
435.97	30551.01
436.16	30745.28
436.34	30204.61
436.53	29724.80
436.72	29890.98
436.90	27969.40
437.09	28294.74
437.28	27693.22
437.46	28659.86
437.65	28481.98
437.84	26625.93
438.02	24655.20
438.21	24250.29
438.40	25720.15
438.58	27964.72
438.77	28521.77
438.96	28936.04
439.14	30216.32
439.33	30939.54
439.52	31112.74
439.70	30565.06
439.89	29558.63
440.08	29305.85
440.26	29142.01
440.45	30068.86
440.63	32107.47
440.82	33888.62
441.01	33186.46
441.19	32800.27
441.38	33137.30
441.57	34850.58
441.75	35026.12
441.94	35147.82
442.12	34831.85
442.31	35431.03
442.50	35510.61
442.68	34920.79
442.87	34810.79
443.05	34061.82
443.24	34834.19
443.43	35756.36
443.61	35864.03
443.80	36395.33
443.98	34433.96
444.17	34143.74
444.35	36854.08
444.54	36596.62
444.73	36811.95
444.91	35082.29
445.10	33883.94
445.28	32554.51
445.47	32088.74
445.65	32151.94
445.84	33228.59
446.02	34223.31
446.21	34651.63
446.39	34574.39
446.58	35583.16
446.77	35374.86
446.95	36390.65
447.14	36554.49
447.32	37500.06
447.51	36561.51
447.69	35220.38
447.88	35178.25
448.06	35913.18
448.25	36032.55
448.43	36524.06
448.62	35812.54
448.80	35522.31
448.99	35739.98
449.17	36149.57
449.36	35814.88
449.54	37579.64
449.73	37921.36
449.91	38293.50
450.10	39782.09
450.28	39831.24
450.46	39906.13
450.65	39585.48
450.83	39615.91
451.02	38452.66
451.20	38251.38
451.39	38660.97
451.57	38424.57
451.76	38707.78
451.94	38443.30
452.13	37315.16
452.31	35990.42
452.49	33703.71
452.68	34375.45
452.86	34815.47
453.05	35150.17
453.23	36257.24
453.42	36596.62
453.60	37860.51
453.78	38197.54
453.97	37900.29
454.15	37706.03
454.34	37010.89
454.52	37109.19
454.70	36648.11
454.89	37200.47
455.07	37476.66
455.26	37666.24
455.44	39166.52
455.62	39531.65
455.81	39852.30
455.99	39583.14
456.17	39391.22
456.36	39328.02
456.54	40526.38
456.73	40095.72
456.91	40994.48
457.09	41331.52
457.28	41614.72
457.46	40226.79
457.64	39639.31
457.83	38859.91
458.01	37860.51
458.19	39068.22
458.38	38899.70
458.56	40575.53
458.74	40119.12
458.93	39098.65
459.11	39538.67
459.29	39503.56
459.48	39505.90
459.66	39061.20
459.84	39543.35
460.03	40105.08
460.21	39885.07
460.39	41013.21
460.57	40992.14
460.76	41427.48
460.94	41713.03
461.12	41443.87
461.31	40910.22
461.49	41221.52
461.67	41146.62
461.85	42120.28
462.04	41893.25
462.22	42623.50
462.40	42157.73
462.59	41769.20
462.77	41607.70
462.95	42099.22
463.13	41734.09
463.32	41118.53
463.50	40884.48
463.68	41478.97
463.86	41048.32
464.05	40561.48
464.23	39601.86
464.41	39896.77
464.59	38967.58
464.78	41174.70
464.96	41045.97
465.14	40493.61
465.32	41375.99
465.50	42534.56
465.69	42714.78
465.87	41621.75
466.05	40245.51
466.23	38770.97
466.41	38314.57
466.60	39557.39
466.78	39470.79
466.96	39934.22
467.14	40128.48
467.32	41317.48
467.51	41139.60
467.69	39482.50
467.87	40327.43
468.05	40809.58
468.23	41174.70
468.41	41064.70
468.60	40814.26
468.78	41422.80
468.96	41155.98
469.14	41909.63
469.32	41909.63
469.50	40268.92
469.69	40390.62
469.87	39629.95
470.05	39660.38
470.23	39468.45
470.41	40325.09
470.59	40680.85
470.77	40594.25
470.95	41567.91
471.14	41762.18
471.32	42038.36
471.50	44296.98
471.68	44341.45
471.86	44561.46
472.04	44671.46
472.22	44758.06
472.40	42557.96
472.58	41930.70
472.77	41930.70
472.95	42583.71
473.13	43936.54
473.31	42951.17
473.49	42876.27
473.67	43873.34
473.85	44172.93
474.03	44804.88
474.21	45160.64
474.39	45450.86
474.57	45823.01
474.75	45528.10
474.93	45474.27
475.12	44545.08
475.30	44699.55
475.48	45090.42
475.66	44947.65
475.84	44516.99
476.02	44793.17
476.20	43653.33
476.38	44678.49
476.56	45977.48
476.74	46469.00
476.92	46848.16
477.10	47562.03
477.28	48531.01
477.46	48371.85
477.64	48151.84
477.82	48767.40
478.00	48870.39
478.18	48418.66
478.36	48170.57
478.54	48339.08
478.72	48151.84
478.90	49539.78
479.08	50263.00
479.26	50857.50
479.44	50586.00
479.62	50255.98
479.80	50326.20
479.98	50527.48
480.16	50679.62
480.34	50468.97
480.52	50920.70
480.70	50967.51
480.88	51098.58
481.06	51880.31
481.24	51786.69
481.41	52685.46
481.59	53141.86
481.77	52818.87
481.95	52580.13
482.13	52437.36
482.31	52481.83
482.49	53256.55
482.67	52582.48
482.85	53052.92
483.03	53525.71
483.21	53911.90
483.39	54047.65
483.57	53181.65
483.74	53244.85
483.92	53294.00
484.10	53607.63
484.28	54185.74
484.46	54639.81
484.64	54878.54
484.82	54129.57
485.00	53698.91
485.18	52846.96
485.35	52046.49
485.53	49418.07
485.71	45738.75
485.89	45544.48
486.07	47665.01
486.25	50560.25
486.43	52299.27
486.61	52884.40
486.78	52907.81
486.96	53254.21
487.14	54232.55
487.32	55096.21
487.50	55835.82
487.68	56210.31
487.85	56793.10
488.03	56561.39
488.21	56577.77
488.39	55901.36
488.57	55206.22
488.75	55145.36
488.92	56198.60
489.10	57708.25
489.28	58653.82
489.46	59299.81
489.64	59049.38
489.81	59489.40
489.99	58752.13
490.17	59110.23
490.35	59377.05
490.53	59072.78
490.70	58672.55
490.88	58536.80
491.06	59512.80
491.24	59339.60
491.41	58457.22
491.59	57237.80
491.77	56713.52
491.95	57595.90
492.13	58611.70
492.30	59798.35
492.48	60224.32
492.66	60582.43
492.84	60521.57
493.01	60360.08
493.19	59861.54
493.37	59608.76
493.54	59540.89
493.72	60168.15
493.90	60987.34
494.08	61371.19
494.25	61689.50
494.43	61815.89
494.61	62197.40
494.79	62262.93
494.96	62035.90
495.14	61509.28
495.32	60633.92
495.49	60278.16
495.67	61247.14
495.85	62213.78
496.02	62742.74
496.20	62419.75
496.38	62024.20
496.55	61860.36
496.73	62424.43
496.91	62466.56
497.09	62955.73
497.26	63180.42
497.44	62571.88
497.62	62152.93
497.79	61586.52
497.97	60390.50
498.14	60640.94
498.32	61689.50
498.50	62351.87
498.67	62869.13
498.85	62904.24
499.03	63014.24
499.20	63124.25
499.38	63112.55
499.56	63203.83
499.73	62501.67
499.91	62298.04
500.08	61696.52
500.26	61263.52
500.44	61701.20
500.61	62213.78
500.79	62197.40
500.97	61609.92
501.14	61783.12
501.32	61413.32
501.49	61492.89
501.67	61757.38
501.84	62309.74
502.02	62335.49
502.20	62401.02
502.37	62705.29
502.55	62850.41
502.72	63409.79
502.90	63861.52
503.07	63320.85
503.25	63114.89
503.43	62255.91
503.60	61797.16
503.78	61197.99
503.95	61684.82
504.13	62894.88
504.30	63770.24
504.48	63402.77
504.65	63063.39
504.83	63194.46
505.01	63760.87
505.18	64018.33
505.36	64453.67
505.53	64444.31
505.71	64729.86
505.88	64697.09
506.06	64205.58
506.23	64013.65
506.41	63791.30
506.58	63758.53
506.76	63716.40
506.93	63744.49
507.11	63622.78
507.28	63615.76
507.46	63281.06
507.63	62766.15
507.81	62628.05
507.98	62937.01
508.16	63531.50
508.33	63957.48
508.50	64280.47
508.68	64680.70
508.85	64800.07
509.03	64907.74
509.20	64610.49
509.38	64015.99
509.55	63470.65
509.73	63512.78
509.90	63973.86
510.08	64425.59
510.25	64175.15
510.42	64041.74
510.60	63896.62
510.77	64137.70
510.95	64790.71
511.12	64893.69
511.30	64961.57
511.47	65181.58
511.64	65193.28
511.82	64802.41
511.99	64065.14
512.17	63936.41
512.34	63510.44
512.51	63800.66
512.69	63952.80
512.86	64048.76
513.04	64603.47
513.21	64425.59
513.38	64072.17
513.56	63533.84
513.73	63051.69
513.90	63302.13
514.08	63250.64
514.25	63611.08
514.43	63732.79
514.60	63962.16
514.77	64065.14
514.95	64114.29
515.12	64044.08
515.29	64210.26
515.47	64638.57
515.64	64664.32
515.81	64254.73
515.99	64020.67
516.16	62656.14
516.33	60701.79
516.51	59545.57
516.68	58836.39
516.85	58375.30
517.03	59105.55
517.20	61343.10
517.37	63238.93
517.54	63936.41
517.72	63456.60
517.89	61329.06
518.06	59465.99
518.24	60123.68
518.41	61958.66
518.58	63035.31
518.75	62960.41
518.93	63014.24
519.10	63089.14
519.27	63384.05
519.45	63582.99
519.62	64444.31
519.79	64554.32
519.96	64502.82
520.14	64030.04
520.31	63217.87
520.48	63339.58
520.65	63700.02
520.83	64444.31
521.00	64807.09
521.17	64367.07
521.34	64081.53
521.52	64619.85
521.69	65031.78
521.86	65160.51
522.03	64961.57
522.20	63753.85
522.38	63011.90
522.55	63126.59
522.72	63657.89
522.89	63676.61
523.07	64065.14
523.24	64177.49
523.41	65041.15
523.58	65153.49
523.75	65535.00
523.92	65478.83
524.10	65347.76
524.27	65518.62
524.44	65169.88
524.61	65102.00
524.78	64863.27
524.96	64783.69
525.13	64963.91
525.30	65029.44
525.47	65535.00
525.64	65373.50
525.81	64746.24
525.98	63669.59
526.16	62206.76
526.33	61605.24
526.50	61347.78
526.67	61242.46
526.84	61783.12
527.01	62492.30
527.18	63372.34
527.36	64083.87
527.53	64879.65
527.70	65015.40
527.87	64385.80
528.04	64261.75
528.21	64676.02
528.38	65300.95
528.55	65535.00
528.72	65535.00
528.89	65535.00
529.07	65535.00
529.24	65272.86
529.41	64605.81
529.58	64179.83
529.75	64322.60
529.92	64699.43
530.09	65087.96
530.26	65457.76
530.43	65535.00
530.60	65535.00
530.77	65535.00
530.94	65535.00
531.11	65535.00
531.28	65251.80
531.46	65031.78
531.63	65310.31
531.80	65094.98
531.97	64657.30
532.14	64172.81
532.31	63009.56
532.48	62508.69
532.65	62733.38
532.82	63580.65
532.99	64437.29
533.16	64636.23
533.33	65263.50
533.50	65029.44
533.67	64463.03
533.84	64006.63
534.01	64224.30
534.18	64577.72
534.35	64650.28
534.52	64477.08
534.69	64896.03
534.86	65041.15
535.03	65235.41
535.20	65535.00
535.37	65535.00
535.54	65535.00
535.71	65535.00
535.88	65249.45
536.05	64750.92
536.22	64495.80
536.38	64329.62
536.55	63784.28
536.72	63187.44
536.89	63426.18
537.06	64116.64
537.23	64977.95
537.40	64891.35
537.57	65069.23
537.74	64718.15
537.91	64835.18
538.08	64568.36
538.25	64720.49
538.42	64917.10
538.59	64891.35
538.75	64212.60
538.92	63821.73
539.09	63915.35
539.26	63702.36
539.43	63561.93
539.60	63664.91
539.77	63732.79
539.94	63746.83
540.11	63082.12
540.28	62702.95
540.44	62834.02
540.61	62981.48
540.78	63278.72
540.95	63566.61
541.12	63681.30
541.29	64030.04
541.46	64240.68
541.62	64458.35
541.79	64240.68
541.96	63739.81
542.13	63838.11
542.30	64025.35
542.47	64102.59
542.63	63849.81
542.80	63653.21
542.97	63861.52
543.14	63721.08
543.31	63744.49
543.48	64186.85
543.64	65010.72
543.81	65219.03
543.98	64858.59
544.15	64535.59
544.32	63863.86
544.48	64060.46
544.65	64521.55
544.82	64699.43
544.99	64259.41
545.16	64058.12
545.32	63964.50
545.49	64757.94
545.66	64797.73
545.83	64502.82
546.00	64212.60
546.16	63819.39
546.33	64154.08
546.50	64154.08
546.67	64395.16
546.83	64128.34
547.00	64088.55
547.17	63510.44
547.34	62986.16
547.50	62990.84
547.67	63267.02
547.84	63386.39
548.00	63920.03
548.17	64278.13
548.34	64032.38
548.51	63997.27
548.67	64123.66
548.84	64121.32
549.01	63992.59
549.18	63870.88
549.34	63781.94
549.51	64072.17
549.68	63800.66
549.84	63620.44
550.01	63695.34
550.18	63545.54
550.34	63454.26
550.51	63592.36
550.68	63781.94
550.84	63206.17
551.01	63370.00
551.18	63271.70
551.34	63447.24
551.51	63845.13
551.68	64067.48
551.84	63985.57
552.01	63917.69
552.18	63700.02
552.34	62990.84
552.51	62939.35
552.68	62588.27
552.84	63164.04
553.01	63203.83
553.18	63283.40
553.34	63426.18
553.51	63575.97
553.67	63690.66
553.84	63847.47
554.01	63657.89
554.17	63561.93
554.34	63575.97
554.51	63753.85
554.67	63950.46
554.84	63781.94
555.00	63426.18
555.17	63355.96
555.33	63353.62
555.50	63325.53
555.67	63501.07
555.83	63224.89
556.00	62937.01
556.16	62873.81
556.33	62667.84
556.50	62541.45
556.66	62724.02
556.83	62550.82
556.99	62447.83
557.16	62618.69
557.32	62862.11
557.49	62824.66
557.65	62803.59
557.82	62929.98
557.98	62850.41
558.15	62372.94
558.32	61694.18
558.48	60961.59
558.65	61141.81
558.81	61537.36
558.98	61958.66
559.14	62092.07
559.31	62173.99
559.47	61998.45
559.64	61766.74
559.80	61556.09
559.97	61638.01
560.13	61918.87
560.30	62745.08
560.46	63206.17
560.63	63269.36
560.79	63304.47
560.96	62831.68
561.12	61872.06
561.29	61258.84
561.45	61502.26
561.61	61881.42
561.78	62202.08
561.94	62085.05
562.11	61932.92
562.27	61876.74
562.44	62113.14
562.60	62450.17
562.77	62550.82
562.93	62335.49
563.10	62183.35
563.26	61888.45
563.42	62071.01
563.59	61881.42
563.75	62021.86
563.92	62000.79
564.08	61841.63
564.24	62082.71
564.41	62134.20
564.57	61904.83
564.74	61937.60
564.90	61825.25
565.07	61509.28
565.23	61429.70
565.39	61013.08
565.56	60694.77
565.72	60617.53
565.88	60975.64
566.05	61041.17
566.21	61043.51
566.38	61286.93
566.54	61340.76
566.70	61766.74
566.87	61740.99
567.03	61874.40
567.19	61935.26
567.36	61715.25
567.52	61446.08
567.68	61226.07
567.85	60921.80
568.01	60598.81
568.17	60257.09
568.34	60264.11
568.50	60378.80
568.66	60395.18
568.83	60823.50
568.99	60933.51
569.15	60825.84
569.32	60870.31
569.48	60790.73
569.64	60624.56
569.81	60308.58
569.97	60259.43
570.13	60072.19
570.30	59676.64
570.46	59437.90
570.62	59037.67
570.78	58862.13
570.95	59264.70
571.11	59746.86
571.27	59863.88
571.43	60315.61
571.60	60395.18
571.76	60654.98
571.92	60697.11
572.09	60940.53
572.25	60647.96
572.41	60727.54
572.57	60654.98
572.74	60472.42
572.90	60240.71
573.06	60341.35
573.22	60397.52
573.38	60556.68
573.55	60186.88
573.71	60474.76
573.87	60612.85
574.03	60238.37
574.20	60203.26
574.36	60212.62
574.52	59845.16
574.68	59728.13
574.84	59206.19
575.01	59002.56
575.17	58777.87
575.33	59203.85
575.49	59643.87
575.65	59550.25
575.82	59414.50
575.98	59166.40
576.14	59370.03
576.30	59543.23
576.46	59676.64
576.62	59660.26
576.79	59671.96
576.95	59428.54
577.11	59166.40
577.27	59374.71
577.43	59391.09
577.59	59131.29
577.75	58724.04
577.92	58092.10
578.08	57958.69
578.24	57993.79
578.40	58546.16
578.56	58548.50
578.72	58700.64
578.88	58829.37
579.04	58962.78
579.21	59222.58
579.37	59047.04
579.53	59016.61
579.69	58932.35
579.85	59089.16
580.01	59131.29
580.17	58543.82
580.33	58632.76
580.49	58986.18
580.65	59051.72
580.82	59295.13
580.98	59189.81
581.14	58808.30
581.30	59014.27
581.46	58738.08
581.62	58972.14
581.78	59231.94
581.94	59245.98
582.10	59421.52
582.26	59283.43
582.42	59288.11
582.58	59276.41
582.74	59133.63
582.90	59377.05
583.06	59297.47
583.22	59044.69
583.38	59068.10
583.54	58901.92
583.70	59047.04
583.86	58955.75
584.02	58869.15
584.18	59018.95
584.34	58852.77
584.50	58754.47
584.66	58667.87
584.82	58232.53
584.98	58408.07
585.14	58010.18
585.30	57628.67
585.46	57434.41
585.62	57319.72
585.78	57731.65
585.94	57366.53
586.10	57794.85
586.26	57991.45
586.42	58337.85
586.58	58391.68
586.74	58206.78
586.90	58314.45
587.06	57986.77
587.22	58096.78
587.38	57577.18
587.54	57670.80
587.70	57612.29
587.86	57200.35
588.02	57010.77
588.18	56982.68
588.34	55994.98
588.49	54466.61
588.65	52987.39
588.81	52530.98
588.97	52973.34
589.13	52783.76
589.29	52521.62
589.45	53549.12
589.61	54571.93
589.77	55341.97
589.93	56119.02
590.08	56493.51
590.24	56603.52
590.40	56811.82
590.56	56886.72
590.72	56776.72
590.88	56027.74
591.04	56116.68
591.20	56023.06
591.35	55978.59
591.51	56189.24
591.67	56069.87
591.83	55845.18
591.99	56168.18
592.15	56374.14
592.31	56289.88
592.46	56334.35
592.62	56346.06
592.78	56002.00
592.94	55863.91
593.10	56109.66
593.26	56540.32
593.41	56598.83
593.57	56245.41
593.73	55870.93
593.89	55791.35
594.05	55519.85
594.20	55351.33
594.36	55117.28
594.52	54939.39
594.68	55164.09
594.84	54923.01
594.99	55557.30
595.15	55784.33
595.31	55753.90
595.47	55517.51
595.62	55615.81
595.78	55910.72
595.94	56046.47
596.10	55957.53
596.25	55756.24
596.41	55482.40
596.57	55388.78
596.73	55936.46
596.88	55873.27
597.04	55463.67
597.20	55419.20
597.36	55047.06
597.51	55416.86
597.67	55510.49
597.83	55126.64
597.99	55040.04
598.14	54665.55
598.30	54908.97
598.46	54763.85
598.61	55171.11
598.77	54932.37
598.93	55215.58
599.09	55337.29
599.24	55426.23
599.40	55182.81
599.56	55145.36
599.71	55143.02
599.87	55393.46
600.03	54805.98
600.18	54813.01
600.34	54553.21
600.50	54436.18
600.65	54258.30
600.81	54564.91
600.97	54593.00
601.12	54450.22
601.28	54436.18
601.44	54183.40
601.59	54319.15
601.75	53848.71
601.91	53860.41
602.06	53766.79
602.22	54169.36
602.37	54152.97
602.53	54419.80
602.69	54607.04
602.84	54679.60
603.00	54883.22
603.16	55021.31
603.31	55107.91
603.47	55056.42
603.62	54621.08
603.78	54794.28
603.94	54499.37
604.09	54663.21
604.25	54368.30
604.40	54398.73
604.56	54475.97
604.71	54497.03
604.87	54293.41
605.03	54335.54
605.18	53932.96
605.34	54031.27
605.49	53979.78
605.65	54251.28
605.80	54204.47
605.96	53762.11
606.12	53483.58
606.27	53542.10
606.43	53670.82
606.58	53565.50
606.74	53799.55
606.89	53848.71
607.05	54054.67
607.20	53645.08
607.36	53268.25
607.51	53577.20
607.67	53027.18
607.82	53312.72
607.98	53111.44
608.13	52898.45
608.29	53017.82
608.44	52722.91
608.60	52392.89
608.75	52739.29
608.91	52423.32
609.06	52760.36
609.22	52926.53
609.37	52664.39
609.53	52877.38
609.68	52463.11
609.84	51660.30
609.99	51737.54
610.15	51660.30
610.30	51826.48
610.46	52107.35
610.61	52369.49
610.76	52762.70
610.92	52903.13
611.07	53057.60
611.23	52715.89
611.38	52940.58
611.54	52514.60
611.69	52140.11
611.84	51559.66
612.00	51489.45
612.15	51147.73
612.31	51398.16
612.46	51320.93
612.62	51400.50
612.77	51634.56
612.92	51894.36
613.08	50962.82
613.23	50461.95
613.39	49832.35
613.54	49764.47
613.69	50185.77
613.85	49820.64
614.00	50609.40
614.15	50813.03
614.31	50637.49
614.46	51096.24
614.62	51388.80
614.77	51061.13
614.92	50974.53
615.08	50677.28
615.23	50857.50
615.38	50410.46
615.54	49645.10
615.69	48924.22
615.84	48353.13
616.00	48135.46
616.15	48439.73
616.30	48804.85
616.46	48320.36
616.61	48390.58
616.76	49106.78
616.92	49371.26
617.07	49109.12
617.22	49591.27
617.37	49181.68
617.53	50000.86
617.68	50145.98
617.83	50101.51
617.99	49965.76
618.14	50115.55
618.29	49626.38
618.45	49155.93
618.60	49488.29
618.75	48980.39
618.90	48669.10
619.06	49024.86
619.21	49123.16
619.36	50094.49
619.51	49471.90
619.67	49326.79
619.82	49146.57
619.97	49729.36
620.12	49160.61
620.28	49326.79
620.43	49254.23
620.58	49712.98
620.73	49268.28
620.89	49153.59
621.04	48870.39
621.19	48170.57
621.34	47714.16
621.49	47852.25
621.65	47810.12
621.80	48439.73
621.95	48004.39
622.10	48383.55
622.25	47929.49
622.41	47384.15
622.56	47452.02
622.71	47065.83
622.86	46656.24
623.01	47138.39
623.16	47070.51
623.32	47002.64
623.47	47072.85
623.62	47049.45
623.77	46880.93
623.92	46499.42
624.07	45537.46
624.23	45244.90
624.38	45694.28
624.53	45663.85
624.68	45879.18
624.83	45387.67
624.98	45691.94
625.13	45329.16
625.29	45460.23
625.44	45347.88
625.59	44924.24
625.74	45141.91
625.89	45738.75
626.04	45378.31
626.19	45453.20
626.34	45462.57
626.49	45736.41
626.65	45256.60
626.80	45427.46
626.95	45645.13
627.10	45326.81
627.25	44746.36
627.40	42967.55
627.55	42281.78
627.70	42204.54
627.85	42417.53
628.00	42485.40
628.15	43650.99
628.30	43625.25
628.45	44177.61
628.60	43765.68
628.76	43892.07
628.91	43758.66
629.06	43508.22
629.21	43342.04
629.36	42995.64
629.51	42955.85
629.66	42459.66
629.81	42464.34
629.96	42370.72
630.11	42639.88
630.26	43262.46
630.41	43257.78
630.56	42953.51
630.71	43063.52
630.86	43007.34
631.01	42419.87
631.16	42040.70
631.31	41525.78
631.46	41163.00
631.61	41640.47
631.76	41907.29
631.91	42391.78
632.06	42546.26
632.21	42653.92
632.36	43086.92
632.51	42672.65
632.66	42485.40
632.81	42417.53
632.96	42506.47
633.10	42199.86
633.25	41759.84
633.40	41895.59
633.55	42000.91
633.70	41881.55
633.85	41518.76
634.00	42174.11
634.15	41984.53
634.30	41530.47
634.45	41270.67
634.60	41989.21
634.75	41935.38
634.90	42007.94
635.05	41918.99
635.19	41432.16
635.34	41806.65
635.49	41755.16
635.64	41235.56
635.79	41109.17
635.94	40442.12
636.09	40849.37
636.24	41294.07
636.39	41191.09
636.53	41359.61
636.68	41691.96
636.83	41525.78
636.98	41516.42
637.13	41787.92
637.28	42164.75
637.43	41923.68
637.57	41528.13
637.72	41537.49
637.87	41055.34
638.02	41291.73
638.17	41029.59
638.32	41022.57
638.46	40823.62
638.61	40879.80
638.76	40371.90
638.91	40009.12
639.06	39985.71
639.20	39634.63
639.35	39756.34
639.50	39456.75
639.65	39281.21
639.80	39405.26
639.94	39555.05
640.09	40081.67
640.24	39566.76
640.39	39182.91
640.54	38689.06
640.68	38834.17
640.83	38590.75
640.98	38323.93
641.13	38607.14
641.27	39178.23
641.42	38560.33
641.57	38665.65
641.72	38756.93
641.86	38136.69
642.01	38504.15
642.16	39133.76
642.31	39152.48
642.45	39143.12
642.60	38983.96
642.75	38288.82
642.90	38890.34
643.04	38295.85
643.19	38506.49
643.34	38047.75
643.48	37930.72
643.63	37975.19
643.78	38328.61
643.93	38185.84
644.07	38890.34
644.22	38539.26
644.37	38569.69
644.51	38113.28
644.66	38485.43
644.81	37785.61
644.95	37844.12
645.10	37329.20
645.25	37043.66
645.39	37212.18
645.54	36910.25
645.69	36673.85
645.83	36486.61
645.98	35871.05
646.13	36196.38
646.27	36575.55
646.42	36177.66
646.57	36554.49
646.71	36374.27
646.86	35922.54
647.00	35873.39
647.15	35234.42
647.30	35587.85
647.44	35304.64
647.59	35571.46
647.74	35033.14
647.88	35014.41
648.03	35171.23
648.17	34892.71
648.32	35552.74
648.47	35079.95
648.61	35360.81
648.76	35257.83
648.90	34328.64
649.05	33411.15
649.20	33008.58
649.34	32821.33
649.49	33165.39
649.63	33759.89
649.78	34319.28
649.92	34712.49
650.07	35374.86
650.21	35545.72
650.36	35363.15
650.51	35704.87
650.65	35786.79
650.80	35639.34
650.94	35091.65
651.09	34869.30
651.23	34054.79
651.38	33546.90
651.52	33675.63
651.67	33610.09
651.81	33830.10
651.96	34380.13
652.10	34656.31
652.25	34719.51
652.39	34988.67
652.54	35028.46
652.68	34277.15
652.83	34026.71
652.97	34630.57
653.12	34338.00
653.26	34436.30
653.41	34925.47
653.55	34249.06
653.70	34436.30
653.84	34370.77
653.99	33785.63
654.13	33544.56
654.27	33163.05
654.42	33275.40
654.56	32620.05
654.71	32851.76
654.85	32708.99
655.00	32425.78
655.14	32018.53
655.29	31463.82
655.43	30857.62
655.57	29649.91
655.72	27695.56
655.86	25474.39
656.01	24416.47
656.15	24727.76
656.30	26040.80
656.44	27878.12
656.58	29046.05
656.73	30064.18
656.87	30082.91
657.01	30813.15
657.16	31433.39
657.30	31667.45
657.45	31938.95
657.59	31906.18
657.73	32346.20
657.88	31901.50
658.02	31842.99
658.16	32126.19
658.31	32070.02
658.45	31990.44
658.60	31508.29
658.74	31826.60
658.88	31295.30
659.03	30658.68
659.17	31028.48
659.31	31075.29
659.46	31185.30
659.60	31784.48
659.74	31330.41
659.89	32140.24
660.03	32198.75
660.17	32224.50
660.32	32048.96
660.46	31768.09
660.60	31414.67
660.74	31014.44
660.89	31094.02
661.03	30986.35
661.17	31304.67
661.32	30984.01
661.46	31407.65
661.60	31339.77
661.74	31311.69
661.89	31346.79
662.03	31379.56
662.17	30803.79
662.31	30780.39
662.46	30834.22
662.60	30677.40
662.74	30742.94
662.88	30721.87
663.03	29879.28
663.17	29867.58
663.31	30171.85
663.45	29750.55
663.60	30265.47
663.74	29486.07
663.88	29799.70
664.02	29972.90
664.17	29755.23
664.31	29518.84
664.45	29694.38
664.59	29603.10
664.73	30101.63
664.88	30015.03
665.02	29860.55
665.16	29589.05
665.30	29612.46
665.44	29205.20
665.59	29436.92
665.73	29392.45
665.87	28554.54
666.01	28807.31
666.15	28720.71
666.29	28266.65
666.44	28416.44
666.58	28472.62
666.72	28477.30
666.86	29221.59
667.00	28741.78
667.14	28959.45
667.28	28690.29
667.43	28397.72
667.57	28287.71
667.71	28512.41
667.85	28449.21
667.99	28250.27
668.13	28247.93
668.27	28074.73
668.41	28386.02
668.56	28283.03
668.70	28283.03
668.84	27716.62
668.98	27573.85
669.12	27798.54
669.26	27653.43
669.40	27091.70
669.54	27487.25
669.68	27461.51
669.82	27192.34
669.96	27300.01
670.10	26867.01
670.25	27035.53
670.39	27028.51
670.53	26639.98
670.67	26515.93
670.81	26885.73
670.95	26277.19
671.09	26309.96
671.23	26192.94
671.37	26127.40
671.51	25591.42
671.65	25926.11
671.79	25935.48
671.93	25991.65
672.07	26389.54
672.21	26176.55
672.35	26221.02
672.49	25883.98
672.63	26183.57
672.77	25745.89
672.91	25851.22
673.05	25411.20
673.19	25504.82
673.33	25521.20
673.47	25582.06
673.61	25345.66
673.75	25556.31
673.89	25469.71
674.03	25507.16
674.17	25345.66
674.31	25214.59
674.45	25015.65
674.59	24697.33
674.73	24748.82
674.87	24924.36
675.01	24386.04
675.15	24783.93
675.29	24570.94
675.43	24444.56
675.56	24278.38
675.70	24395.40
675.84	24119.22
675.98	23772.82
676.12	24189.44
676.26	24236.25
676.40	23779.84
676.54	23896.87
676.68	23653.45
676.82	23271.95
676.96	23653.45
677.10	22991.08
677.23	23323.44
677.37	23161.94
677.51	23124.49
677.65	22815.54
677.79	22916.19
677.93	22604.89
678.07	22677.45
678.21	22537.02
678.34	22333.39
678.48	22317.01
678.62	22389.56
678.76	22427.01
678.90	22476.16
679.04	22377.86
679.18	22298.28
679.31	22031.46
679.45	21745.92
679.59	21888.69
679.73	22132.11
679.87	21841.88
680.00	21809.11
680.14	21617.19
680.28	21635.91
680.42	21359.73
680.56	21411.22
680.70	21050.78
680.83	21095.25
680.97	20870.56
681.11	20936.09
681.25	21113.97
681.39	20552.24
681.52	20875.24
681.66	20645.87
681.80	20460.96
681.94	20877.58
682.07	20821.41
682.21	20713.74
682.35	20109.88
682.49	20297.13
682.62	19939.02
682.76	19880.51
682.90	19709.65
683.04	19960.09
683.17	20123.93
683.31	19852.42
683.45	19477.94
683.59	19278.99
683.72	19143.24
683.86	19087.07
684.00	18773.44
684.13	18700.88
684.27	18670.45
684.41	18789.82
684.55	19037.92
684.68	19007.49
684.82	18848.33
684.96	18661.09
685.09	18286.61
685.23	18230.43
685.37	17820.84
685.50	17713.17
685.64	17717.86
685.78	17965.95
685.91	18024.47
686.05	17806.80
686.19	17401.88
686.32	16142.67
686.46	14281.95
686.60	12788.69
686.73	11719.06
686.87	11037.97
687.01	11108.18
687.14	11227.55
687.28	11709.70
687.42	12119.29
687.55	12589.74
687.69	13619.58
687.82	14314.72
687.96	14408.34
688.10	14455.15
688.23	14532.39
688.37	14277.27
688.50	14190.67
688.64	13748.31
688.78	13441.70
688.91	13589.15
689.05	13530.64
689.18	13298.92
689.32	13495.53
689.46	13432.33
689.59	13530.64
689.73	13767.03
689.86	13593.83
690.00	13919.17
690.13	13795.12
690.27	13706.18
690.41	13797.46
690.54	13631.28
690.68	14003.43
690.81	14045.55
690.95	13659.37
691.08	14040.87
691.22	13909.80
691.35	14012.79
691.49	14005.77
691.62	13940.23
691.76	14064.28
691.89	14157.90
692.03	13905.12
692.16	13598.51
692.30	13809.16
692.43	13617.24
692.57	13514.25
692.70	13411.27
692.84	13209.98
692.97	13170.19
693.11	13202.96
693.24	13053.17
693.38	12994.65
693.51	13099.98
693.65	12697.41
693.78	12622.51
693.92	12383.77
694.05	12325.26
694.19	12369.73
694.32	12381.43
694.45	12248.02
694.59	12212.92
694.72	12297.17
694.86	12271.43
694.99	12416.54
695.13	12198.87
695.26	12077.16
695.39	12020.99
695.53	11976.52
695.66	12109.93
695.80	12229.30
695.93	12098.23
696.07	12243.34
696.20	12395.48
696.33	12182.49
696.47	12545.27
696.60	12283.13
696.73	12299.52
696.87	12383.77
697.00	12348.67
697.14	12304.20
697.27	12105.25
697.40	11854.81
697.54	11826.73
697.67	11253.30
697.80	11435.86
697.94	11052.01
698.07	11316.49
698.21	11290.74
698.34	11253.30
698.47	11136.27
698.61	10883.49
698.74	10937.32
698.87	10991.16
699.01	10719.65
699.14	10768.80
699.27	10862.43
699.40	10932.64
699.54	10703.27
699.67	10764.12
699.80	10417.72
699.94	10572.20
700.07	10462.19
700.20	9935.57
700.34	9928.55
700.47	10015.15
700.60	9933.23
700.73	10141.54
700.87	10078.35
701.00	10017.49
701.13	9877.06
701.26	9769.40
701.40	9582.15
701.53	9533.00
701.66	9767.06
701.79	9900.47
701.93	9558.75
702.06	9488.53
702.19	9596.20
702.32	9467.47
702.46	9467.47
702.59	9298.95
702.72	9383.21
702.85	9392.57
702.99	9692.16
703.12	9430.02
703.25	9312.99
703.38	9490.87
703.51	9362.14
703.65	9076.60
703.78	9261.50
703.91	9085.96
704.04	9195.96
704.17	9221.71
704.31	8997.02
704.44	9198.31
704.57	9202.99
704.70	8975.95
704.83	9025.11
704.96	8837.86
705.10	8898.72
705.23	8645.94
>>>>>End Processed Spectral Data<<<<<
