SpectraSuite Data File
++++++++++++++++++++++++++++++++++++
Date: Mon Oct 07 14:53:39 GMT-05:00 2013
User: price-jones
Dark Spectrum Present: No
Reference Spectrum Present: No
Number of Sampled Component Spectra: 1
Spectrometers: USB2+H05261
Integration Time (usec): 100000 (USB2+H05261)
Spectra Averaged: 1 (USB2+H05261)
Boxcar Smoothing: 0 (USB2+H05261)
Correct for Electrical Dark: No (USB2+H05261)
Strobe/Lamp Enabled: No (USB2+H05261)
Correct for Detector Non-linearity: No (USB2+H05261)
Correct for Stray Light: No (USB2+H05261)
Number of Pixels in Processed Spectrum: 2048
>>>>>Begin Processed Spectral Data<<<<<
365.73	0.00
365.92	0.00
366.12	0.00
366.32	0.00
366.52	0.00
366.72	0.00
366.91	0.00
367.11	0.00
367.31	0.00
367.51	0.00
367.70	0.00
367.90	0.00
368.10	0.00
368.30	0.00
368.49	0.00
368.69	0.00
368.89	0.00
369.09	0.00
369.28	0.00
369.48	0.00
369.68	0.00
369.87	0.00
370.07	0.00
370.27	0.00
370.47	107.66
370.66	1341.13
370.86	1561.14
371.06	1636.03
371.25	1792.85
371.45	1533.05
371.65	1451.13
371.84	1320.06
372.04	1287.29
372.24	1619.65
372.44	1636.03
372.63	1572.84
372.83	1336.45
373.03	1357.51
373.22	1076.65
373.42	1256.87
373.62	1483.90
373.81	1528.37
374.01	1605.61
374.21	1413.68
374.40	1350.49
374.60	1444.11
374.79	1633.69
374.99	1811.57
375.19	2008.18
375.38	1956.69
375.58	1846.68
375.78	1696.89
375.97	1898.17
376.17	1912.22
376.37	2012.86
376.56	2085.42
376.76	2127.55
376.95	2338.20
377.15	2492.67
377.35	2546.50
377.54	2562.89
377.74	2691.62
377.93	2722.04
378.13	2656.51
378.33	2586.29
378.52	2291.38
378.72	2188.40
378.91	2113.50
379.11	2062.01
379.31	2036.27
379.50	2033.93
379.70	2160.31
379.89	2452.88
380.09	2593.31
380.28	2647.15
380.48	2698.64
380.68	2539.48
380.87	2523.10
381.07	2342.88
381.26	2188.40
381.46	1984.77
381.65	1982.43
381.85	1764.76
382.04	1736.68
382.24	1657.10
382.43	1519.01
382.63	1533.05
382.83	1551.78
383.02	1558.80
383.22	1643.06
383.41	1558.80
383.61	1710.93
383.80	2059.67
384.00	2127.55
384.19	2377.98
384.39	2574.59
384.58	2663.53
384.78	2485.65
384.97	2502.03
385.17	2392.03
385.36	2298.41
385.56	2270.32
385.75	2221.17
385.95	2555.86
386.14	2717.36
386.34	2562.89
386.53	2415.43
386.72	2363.94
386.92	2445.86
387.11	2689.28
387.31	2710.34
387.50	2616.72
387.70	2509.05
387.89	2513.74
388.09	2471.61
388.28	2590.97
388.48	2527.78
388.67	2761.83
388.86	3204.19
389.06	3185.47
389.25	3510.80
389.45	3499.10
389.64	3454.63
389.84	3471.01
390.03	3445.27
390.22	3337.60
390.42	3527.19
390.61	3709.75
390.81	4051.47
391.00	4168.49
391.19	4191.90
391.39	4016.36
391.58	3740.18
391.78	3365.69
391.97	3438.25
392.16	3194.83
392.36	2916.31
392.55	2377.98
392.75	1844.34
392.94	1519.01
393.13	1460.49
393.33	1771.79
393.52	2293.72
393.71	2722.04
393.91	3021.63
394.10	3344.63
394.29	3740.18
394.49	3943.80
394.68	4243.39
394.88	4348.72
395.07	4601.49
395.26	4486.81
395.46	4351.06
395.65	4049.13
395.84	3569.32
396.04	3023.97
396.23	2401.39
396.42	1994.14
396.62	1877.11
396.81	2265.64
397.00	2818.00
397.19	3684.00
397.39	4428.29
397.58	4985.34
397.77	5170.24
397.97	5369.19
398.16	5523.66
398.35	5598.56
398.55	5736.65
398.74	6019.86
398.93	6132.20
399.12	5977.73
399.32	5947.30
399.51	6036.24
399.70	6352.21
399.90	6431.79
400.09	6436.47
400.28	6389.66
400.47	6438.81
400.67	6733.72
400.86	6848.41
401.05	7019.27
401.24	6942.03
401.44	6970.12
401.63	7110.55
401.82	7070.76
402.01	7035.65
402.21	7276.73
402.40	7225.23
402.59	7045.01
402.78	6572.22
402.97	6530.09
403.17	6738.40
403.36	7138.63
403.55	7438.22
403.74	7496.74
403.93	7077.78
404.13	6855.43
404.32	6729.04
404.51	6874.15
404.70	7459.29
404.89	7169.06
405.09	7248.64
405.28	6984.16
405.47	6890.54
405.66	6932.67
405.85	6906.92
406.05	6637.76
406.24	6860.11
406.43	7021.61
406.62	7297.79
406.81	7475.67
407.00	7176.08
407.20	6935.01
407.39	7098.84
407.58	7323.54
407.77	7597.38
407.96	7822.07
408.15	7999.95
408.34	8018.68
408.54	8154.43
408.73	8344.01
408.92	8257.41
409.11	7845.48
409.30	7695.68
409.49	7222.89
409.68	6621.38
409.87	6682.23
410.07	6808.62
410.26	7520.14
410.45	8025.70
410.64	8116.98
410.83	8386.14
411.02	8561.68
411.21	8985.32
411.40	9039.15
411.59	8805.10
411.78	8723.18
411.98	8512.53
412.17	8741.90
412.36	8528.91
412.55	8713.81
412.74	8458.70
412.93	8334.65
413.12	8365.07
413.31	9095.32
413.50	9294.27
413.69	9401.93
413.88	9071.92
414.07	8727.86
414.26	8833.18
414.45	9256.82
414.64	9207.67
414.83	9217.03
415.02	9163.20
415.22	8950.21
415.41	9565.77
415.60	9493.21
415.79	9975.36
415.98	10087.71
416.17	10389.64
416.36	9963.66
416.55	9731.95
416.74	9563.43
416.93	9118.73
417.12	9071.92
417.31	9291.93
417.50	9586.83
417.69	9703.86
417.88	9724.93
418.07	9767.06
418.26	9509.60
418.45	9591.52
418.64	9956.64
418.83	10328.78
419.02	10167.29
419.21	10064.30
419.39	9820.89
419.58	9284.91
419.77	9500.23
419.96	9558.75
420.15	10249.21
420.34	10626.03
420.53	10642.42
420.72	11094.14
420.91	11171.38
421.10	10537.09
421.29	10920.94
421.48	10237.50
421.67	10902.22
421.86	10408.36
422.05	9834.93
422.24	8826.16
422.43	8755.94
422.61	9729.61
422.80	10527.73
422.99	10537.09
423.18	10031.54
423.37	9788.12
423.56	9713.22
423.75	10019.83
423.94	10253.89
424.13	9818.55
424.32	9912.17
424.50	10087.71
424.69	9891.10
424.88	9696.84
425.07	9699.18
425.26	9818.55
425.45	9446.40
425.64	9558.75
425.83	9497.89
426.01	9767.06
426.20	10328.78
426.39	10375.59
426.58	9575.13
426.77	8758.28
426.96	8489.12
427.15	8945.53
427.33	9584.49
427.52	9989.41
427.71	9781.10
427.90	9916.85
428.09	9722.59
428.28	9551.73
428.46	9193.62
428.65	8997.02
428.84	9303.63
429.03	9504.92
429.22	9078.94
429.40	8690.41
429.59	7590.36
429.78	6789.89
429.97	6881.18
430.16	6883.52
430.34	6906.92
430.53	7007.56
430.72	7012.24
430.91	8093.57
431.10	9158.52
431.28	10993.50
431.47	11786.94
431.66	11847.79
431.85	10832.00
432.03	9975.36
432.22	9678.12
432.41	9900.47
432.60	10988.82
432.79	11239.25
432.97	11702.68
433.16	11365.64
433.35	10263.25
433.54	9420.66
433.72	8800.41
433.91	9184.26
434.10	10225.80
434.28	10920.94
434.47	11555.22
434.66	11300.11
434.85	11140.95
435.03	11091.80
435.22	11419.47
435.41	12437.61
435.59	12245.68
435.78	12325.26
435.97	12592.08
436.16	12276.11
436.34	12301.86
436.53	12091.21
436.72	12016.31
436.90	11449.90
437.09	11445.22
437.28	11260.32
437.46	11403.09
437.65	11243.93
437.84	10960.73
438.02	9820.89
438.21	9848.97
438.40	10354.53
438.58	11080.10
438.77	11520.12
438.96	11693.32
439.14	12180.15
439.33	12456.33
439.52	12641.23
439.70	12360.37
439.89	12056.10
440.08	11587.99
440.26	11918.01
440.45	12067.80
440.63	12912.74
440.82	13542.34
441.01	13598.51
441.19	13327.01
441.38	13228.71
441.57	14038.53
441.75	14429.40
441.94	14134.50
442.12	13891.08
442.31	14487.92
442.50	14623.67
442.68	14242.16
442.87	14160.24
443.05	13743.63
443.24	14083.00
443.43	14480.89
443.61	14651.75
443.80	14618.99
443.98	14218.75
444.17	13949.59
444.35	14675.16
444.54	15014.54
444.73	14836.66
444.91	14317.06
445.10	13741.29
445.28	13170.19
445.47	12734.85
445.65	13235.73
445.84	13385.52
446.02	13657.03
446.21	13956.61
446.39	13949.59
446.58	14167.26
446.77	14551.11
446.95	14651.75
447.14	14906.87
447.32	15302.42
447.51	14801.55
447.69	14443.45
447.88	14293.65
448.06	14174.28
448.25	14824.95
448.43	15019.22
448.62	14562.81
448.80	14567.49
448.99	14548.77
449.17	14906.87
449.36	14633.03
449.54	15386.68
449.73	15297.74
449.91	15569.24
450.10	16191.83
450.28	16290.13
450.46	16362.69
450.65	16311.19
450.83	16156.72
451.02	15562.22
451.20	15908.62
451.39	15920.32
451.57	15386.68
451.76	15578.61
451.94	15367.96
452.13	15051.99
452.31	14668.14
452.49	13706.18
452.68	14139.18
452.86	13958.96
453.05	14235.14
453.23	14892.83
453.42	15094.11
453.60	15728.40
453.78	15506.05
453.97	15307.10
454.15	15475.62
454.34	14789.85
454.52	15037.94
454.70	15133.90
454.89	15143.27
455.07	14829.63
455.26	15171.35
455.44	15765.85
455.62	16418.86
455.81	16109.91
455.99	16086.50
456.17	15534.14
456.36	16205.87
456.54	16224.59
456.73	16362.69
456.91	16596.74
457.09	16879.94
457.28	17263.79
457.46	16531.20
457.64	16542.91
457.83	15693.29
458.01	15494.35
458.19	15772.87
458.38	15927.35
458.56	16458.65
458.74	16681.00
458.93	16058.42
459.11	16203.53
459.29	15908.62
459.48	16098.20
459.66	16079.48
459.84	16074.80
460.03	16208.21
460.21	16594.40
460.39	16624.83
460.57	16655.25
460.76	16795.68
460.94	17425.29
461.12	16643.55
461.31	16608.44
461.49	16795.68
461.67	16730.15
461.85	17305.92
462.04	17291.88
462.22	17951.91
462.40	17401.88
462.59	17490.82
462.77	17228.68
462.95	17170.17
463.13	17160.81
463.32	16783.98
463.50	16809.73
463.68	16893.99
463.86	16938.46
464.05	16573.33
464.23	16334.60
464.41	16233.96
464.59	16081.82
464.78	16821.43
464.96	16683.34
465.14	16327.58
465.32	16727.81
465.50	17507.21
465.69	17598.49
465.87	17226.34
466.05	16493.76
466.23	15917.98
466.41	15541.16
466.60	15953.09
466.78	15812.66
466.96	16285.45
467.14	16383.75
467.32	16830.79
467.51	16746.53
467.69	16039.69
467.87	16428.22
468.05	16615.46
468.23	16601.42
468.41	16496.10
468.60	16692.70
468.78	16718.45
468.96	16910.37
469.14	17149.11
469.32	16898.67
469.50	16173.10
469.69	16386.09
469.87	16430.56
470.05	16161.40
470.23	16376.73
470.41	16294.81
470.59	16664.61
470.77	16713.77
470.95	17088.25
471.14	17259.11
471.32	17011.01
471.50	18155.54
471.68	18415.34
471.86	18480.87
472.04	18403.63
472.22	18291.29
472.40	17532.95
472.58	17158.47
472.77	17345.71
472.95	17619.55
473.13	18094.68
473.31	17649.98
473.49	17488.48
473.67	17722.54
473.85	18075.96
474.03	18354.48
474.21	18494.91
474.39	18621.30
474.57	18970.04
474.75	18838.97
474.93	18588.53
475.12	18361.50
475.30	18202.35
475.48	18398.95
475.66	18511.30
475.84	18361.50
476.02	18061.91
476.20	18094.68
476.38	18279.58
476.56	19002.81
476.74	19522.41
476.92	19253.25
477.10	19613.69
477.28	19943.70
477.46	20273.72
477.64	20435.22
477.82	20475.01
478.00	20592.03
478.18	20016.26
478.36	20280.74
478.54	20280.74
478.72	20343.94
478.90	20720.76
479.08	21656.98
479.26	21682.72
479.44	21425.26
479.62	21149.08
479.80	21350.37
479.98	21624.21
480.16	21446.33
480.34	21523.57
480.52	21638.25
480.70	21795.07
480.88	21851.24
481.06	22485.53
481.24	22494.89
481.41	22682.13
481.59	22984.06
481.77	23019.17
481.95	22583.83
482.13	22693.83
482.31	22630.64
482.49	23056.62
482.67	23159.60
482.85	22974.70
483.03	23454.51
483.21	23814.95
483.39	23880.49
483.57	23555.15
483.74	23019.17
483.92	23204.07
484.10	23332.80
484.28	24372.00
484.46	24159.01
484.64	24772.23
484.82	23784.52
485.00	23873.46
485.18	23220.45
485.35	22347.44
485.53	20746.51
485.71	18829.61
485.89	18902.17
486.07	19683.91
486.25	21350.37
486.43	22895.12
486.61	23255.56
486.78	22911.50
486.96	23199.39
487.14	24254.97
487.32	24739.46
487.50	25605.46
487.68	25972.92
487.85	26511.25
488.03	26672.74
488.21	25996.33
488.39	25642.91
488.57	25137.35
488.75	24847.13
488.92	26029.10
489.10	27304.69
489.28	28041.96
489.46	29373.72
489.64	28666.88
489.81	29413.51
489.99	28680.92
490.17	28645.82
490.35	29359.68
490.53	28849.44
490.70	28407.08
490.88	28308.78
491.06	29090.52
491.24	29144.35
491.41	28421.13
491.59	26778.07
491.77	26387.20
491.95	27276.60
492.13	28163.67
492.30	29235.63
492.48	30092.27
492.66	31089.34
492.84	30675.06
493.01	30565.06
493.19	29876.94
493.37	29479.05
493.54	29006.26
493.72	30286.53
493.90	31072.95
494.08	31899.16
494.25	31990.44
494.43	32444.51
494.61	32952.40
494.79	33181.77
494.96	32573.24
495.14	32016.19
495.32	31072.95
495.49	30270.15
495.67	31367.86
495.85	32652.81
496.02	33404.13
496.20	33301.14
496.38	32858.78
496.55	32481.95
496.73	33268.37
496.91	32947.72
497.09	33897.98
497.26	34267.78
497.44	33247.31
497.62	32996.87
497.79	31674.47
497.97	30675.06
498.14	31016.78
498.32	32259.60
498.50	32912.61
498.67	33584.35
498.85	33647.54
499.03	34216.29
499.20	34134.37
499.38	34106.29
499.56	33757.55
499.73	33200.50
499.91	32669.20
500.08	32105.13
500.26	31180.62
500.44	32231.52
500.61	32748.78
500.79	32737.07
500.97	31889.80
501.14	31861.71
501.32	31854.69
501.49	31761.07
501.67	32435.14
501.84	32826.01
502.02	33008.58
502.20	33560.94
502.37	33734.14
502.55	33893.30
502.72	33855.85
502.90	34773.34
503.07	34714.83
503.25	34127.35
503.43	33067.09
503.60	32318.12
503.78	31840.65
503.95	32254.92
504.13	34061.82
504.30	35021.44
504.48	34490.13
504.65	33862.87
504.83	34108.63
505.01	34843.56
505.18	35676.79
505.36	36154.26
505.53	36114.47
505.71	36608.32
505.88	36315.75
506.06	35805.52
506.23	35168.89
506.41	34501.84
506.58	35271.87
506.76	34824.83
506.93	35225.06
507.11	34660.99
507.28	34827.17
507.46	34136.71
507.63	33509.45
507.81	33411.15
507.98	33905.00
508.16	34906.75
508.33	35079.95
508.50	35505.93
508.68	35817.22
508.85	36690.24
509.03	37013.23
509.20	36896.20
509.38	35297.62
509.55	34410.56
509.73	34845.90
509.90	35428.69
510.08	35901.48
510.25	35917.86
510.42	35152.51
510.60	35435.71
510.77	35714.23
510.95	36175.32
511.12	36465.55
511.30	36959.40
511.47	37560.92
511.64	37378.36
511.82	36872.80
511.99	35676.79
512.17	35159.53
512.34	34747.59
512.51	34623.54
512.69	34974.63
512.86	35440.39
513.04	35828.92
513.21	36149.57
513.38	35276.55
513.56	34890.37
513.73	34115.65
513.90	33837.12
514.08	34300.55
514.25	34789.72
514.43	34890.37
514.60	34841.21
514.77	35438.05
514.95	35543.38
515.12	35159.53
515.29	36070.00
515.47	36238.51
515.64	36882.16
515.81	36039.57
515.99	35192.30
516.16	33387.74
516.33	30953.58
516.51	29373.72
516.68	28659.86
516.85	28442.19
517.03	28568.58
517.20	31527.02
517.37	34150.76
517.54	35152.51
517.72	34555.67
517.89	31707.24
518.06	29624.16
518.24	29909.71
518.41	32055.98
518.58	33577.33
518.75	33748.18
518.93	34569.71
519.10	34267.78
519.27	34778.02
519.45	34787.38
519.62	36098.08
519.79	36266.60
519.96	36203.41
520.14	35622.95
520.31	34274.80
520.48	33914.36
520.65	34286.51
520.83	36137.87
521.00	36479.59
521.17	35697.85
521.34	35658.06
521.52	35639.34
521.69	36753.43
521.86	37500.06
522.03	36891.52
522.20	34955.90
522.38	33935.43
522.55	33963.51
522.72	34939.52
522.89	34967.60
523.07	35473.16
523.24	35707.21
523.41	37013.23
523.58	37062.38
523.75	37907.32
523.92	37340.91
524.10	37549.21
524.27	37266.01
524.44	36858.76
524.61	36837.69
524.78	36847.05
524.96	36367.24
525.13	36453.84
525.30	36943.02
525.47	37764.54
525.64	37661.56
525.81	36690.24
525.98	34438.64
526.16	32748.78
526.33	32128.53
526.50	31838.31
526.67	31337.43
526.84	31723.62
527.01	32875.16
527.18	34040.75
527.36	35388.90
527.53	36292.35
527.70	36617.68
527.87	35915.52
528.04	35611.25
528.21	36189.36
528.38	36779.18
528.55	37867.53
528.72	38487.77
528.89	38480.75
529.07	37921.36
529.24	37109.19
529.41	36126.17
529.58	35026.12
529.75	35969.35
529.92	36435.12
530.09	36898.55
530.26	37385.38
530.43	38230.31
530.60	37701.35
530.77	38281.80
530.94	38635.22
531.11	37666.24
531.28	37001.53
531.46	36935.99
531.63	36872.80
531.80	36840.03
531.97	36086.38
532.14	35508.27
532.31	34363.75
532.48	33383.06
532.65	33043.68
532.82	34249.06
532.99	35952.97
533.16	35990.42
533.33	37015.57
533.50	36893.86
533.67	35775.09
533.84	35227.40
534.01	35732.96
534.18	36259.58
534.35	36414.05
534.52	35651.04
534.69	36070.00
534.86	36788.54
535.03	37209.84
535.20	38078.18
535.37	38518.20
535.54	38717.14
535.71	38127.33
535.88	37469.64
536.05	36524.06
536.22	36016.16
536.38	35688.49
536.55	34951.22
536.72	34108.63
536.89	34136.71
537.06	35400.60
537.23	36610.66
537.40	36629.38
537.57	37111.53
537.74	36416.40
537.91	36671.51
538.08	36257.24
538.25	36392.99
538.42	37060.04
538.59	36566.19
538.75	35873.39
538.92	35283.58
539.09	34932.50
539.26	34759.30
539.43	34771.00
539.60	34768.66
539.77	34998.03
539.94	34609.50
540.11	33734.14
540.28	33160.71
540.44	33493.07
540.61	33731.80
540.78	34197.57
540.95	34934.84
541.12	35620.61
541.29	35405.28
541.46	35784.45
541.62	36062.97
541.79	35672.10
541.96	35030.80
542.13	34532.26
542.30	35365.49
542.47	35716.58
542.63	34869.30
542.80	34909.09
542.97	34775.68
543.14	34951.22
543.31	34742.91
543.48	35646.36
543.64	36418.74
543.81	37273.03
543.98	36950.04
544.15	35754.02
544.32	35138.46
544.48	35101.01
544.65	35681.47
544.82	36416.40
544.99	36203.41
545.16	35316.34
545.32	34955.90
545.49	35955.31
545.66	36847.05
545.83	36067.66
546.00	35751.68
546.16	35618.27
546.33	35189.95
546.50	35220.38
546.67	35931.90
546.83	35262.51
547.00	35557.42
547.17	34450.35
547.34	33675.63
547.50	33600.73
547.67	33954.15
547.84	34141.39
548.00	35105.70
548.17	35541.03
548.34	35248.47
548.51	35068.25
548.67	35526.99
548.84	35384.22
549.01	35461.46
549.18	34778.02
549.34	35129.10
549.51	35019.10
549.68	34918.45
549.84	34314.59
550.01	34852.92
550.18	34534.60
550.34	34450.35
550.51	34923.13
550.68	34873.98
550.84	33816.06
551.01	34209.27
551.18	34342.68
551.34	34501.84
551.51	34895.05
551.68	35218.04
551.84	35477.84
552.01	34944.20
552.18	34682.06
552.34	34061.82
552.51	33710.74
552.68	33373.70
552.84	33996.28
553.01	34139.05
553.18	33982.24
553.34	34326.30
553.51	34440.98
553.67	34424.60
553.84	34682.06
554.01	34773.34
554.17	34415.24
554.34	34532.26
554.51	34878.66
554.67	35295.28
554.84	35007.39
555.00	34646.95
555.17	33886.28
555.33	34125.01
555.50	34279.49
555.67	33666.27
555.83	33713.08
556.00	33329.23
556.16	33736.48
556.33	32968.79
556.50	33287.10
556.66	32971.13
556.83	32620.05
556.99	32781.54
557.16	32833.04
557.32	33280.08
557.49	33532.86
557.65	33186.46
557.82	33153.69
557.98	33263.69
558.15	32584.94
558.32	31648.72
558.48	30775.70
558.65	31431.05
558.81	31449.78
558.98	32224.50
559.14	32100.45
559.31	32378.97
559.47	32102.79
559.64	31931.93
559.80	31583.19
559.97	31648.72
560.13	32161.30
560.30	33120.92
560.46	34012.66
560.63	33858.19
560.79	34188.21
560.96	33139.65
561.12	32074.70
561.29	31065.93
561.45	31229.77
561.61	31805.54
561.78	32355.57
561.94	31934.27
562.11	32081.72
562.27	32091.09
562.44	32531.11
562.60	32598.98
562.77	33083.47
562.93	32847.08
563.10	32453.87
563.26	31981.08
563.42	32074.70
563.59	31770.43
563.75	31491.91
563.92	31803.20
564.08	32084.06
564.24	32180.03
564.41	32297.05
564.57	32013.85
564.74	31988.10
564.90	31910.86
565.07	31421.69
565.23	31014.44
565.39	30808.47
565.56	30291.21
565.72	30206.95
565.88	30478.46
566.05	30668.04
566.21	31005.08
566.38	31391.26
566.54	31665.11
566.70	31477.86
566.87	32051.30
567.03	31866.39
567.19	32236.20
567.36	32304.07
567.52	31955.33
567.68	31150.19
567.85	30450.37
568.01	30162.48
568.17	29898.00
568.34	29577.35
568.50	29947.15
568.66	29975.24
568.83	30572.08
568.99	30272.49
569.15	30761.66
569.32	30803.79
569.48	30246.74
569.64	29905.02
569.81	29591.39
569.97	29811.40
570.13	29677.99
570.30	29064.77
570.46	28847.10
570.62	28261.97
570.78	28016.21
570.95	28491.34
571.11	29294.14
571.27	29682.67
571.43	29677.99
571.60	30118.01
571.76	29727.14
571.92	30253.76
572.09	30572.08
572.25	30602.50
572.41	30244.40
572.57	30445.69
572.74	30417.60
572.90	29738.85
573.06	29710.76
573.22	29663.95
573.38	30017.37
573.55	29638.20
573.71	30218.66
573.87	30110.99
574.03	29788.00
574.20	29687.36
574.36	29516.50
574.52	29677.99
574.68	29249.67
574.84	29277.76
575.01	28762.84
575.17	28339.21
575.33	28479.64
575.49	28828.38
575.65	28683.27
575.82	28498.36
575.98	28631.77
576.14	28854.12
576.30	29401.81
576.46	29270.74
576.62	29022.64
576.79	29076.48
576.95	28634.11
577.11	28526.45
577.27	28849.44
577.43	28919.66
577.59	28851.78
577.75	28680.92
577.92	27632.36
578.08	27339.80
578.24	27255.54
578.40	27927.27
578.56	28093.45
578.72	28053.66
578.88	28133.24
579.04	28173.03
579.21	28594.32
579.37	28292.40
579.53	28566.24
579.69	28706.67
579.85	28987.53
580.01	28531.13
580.17	28489.00
580.33	28114.52
580.49	28137.92
580.65	28484.32
580.82	28493.68
580.98	28341.55
581.14	28215.16
581.30	28400.06
581.46	28198.77
581.62	28599.01
581.78	28276.01
581.94	28922.00
582.10	28388.36
582.26	28608.37
582.42	28704.33
582.58	28683.27
582.74	28861.15
582.90	29116.26
583.06	28563.90
583.22	28451.55
583.38	27843.01
583.54	28348.57
583.70	28257.29
583.86	28184.73
584.02	28224.52
584.18	28364.95
584.34	28533.47
584.50	28212.82
584.66	28105.15
584.82	27337.46
584.98	27513.00
585.14	27297.67
585.30	26501.89
585.46	26136.76
585.62	26782.75
585.78	26536.99
585.94	26848.29
586.10	27386.61
586.26	27143.19
586.42	27594.92
586.58	27920.25
586.74	27672.15
586.90	27447.46
587.06	26962.97
587.22	27742.37
587.38	26717.22
587.54	26724.24
587.70	26635.30
587.86	26852.97
588.02	25996.33
588.18	25982.29
588.34	25362.04
588.49	23798.57
588.65	22764.05
588.81	22530.00
588.97	22909.16
589.13	22553.40
589.29	22696.17
589.45	22998.10
589.61	23662.82
589.77	24510.09
589.93	25233.32
590.08	25937.82
590.24	25724.83
590.40	25591.42
590.56	26022.08
590.72	25914.41
590.88	25245.02
591.04	25387.79
591.20	25717.81
591.35	25373.75
591.51	25605.46
591.67	25043.73
591.83	25528.22
591.99	25369.07
592.15	25584.40
592.31	25743.55
592.46	25467.37
592.62	25280.13
592.78	25207.57
592.94	25135.01
593.10	25333.96
593.26	25352.68
593.41	25649.93
593.57	25422.90
593.73	24996.92
593.89	25034.37
594.05	24549.88
594.20	24325.19
594.36	24601.37
594.52	23971.77
594.68	24549.88
594.84	24325.19
594.99	24971.18
595.15	24851.81
595.31	24833.08
595.47	24713.72
595.62	24973.52
595.78	24786.27
595.94	25472.05
596.10	25406.52
596.25	25233.32
596.41	24601.37
596.57	24472.64
596.73	24989.90
596.88	24912.66
597.04	24954.79
597.20	24676.27
597.36	24339.23
597.51	24477.32
597.67	24376.68
597.83	24297.10
597.99	24538.18
598.14	24098.16
598.30	23976.45
598.46	24151.99
598.61	24528.81
598.77	24397.74
598.93	24383.70
599.09	24428.17
599.24	24430.51
599.40	24156.67
599.56	24528.81
599.71	24615.41
599.87	24477.32
600.03	24175.39
600.18	24056.03
600.34	23796.23
600.50	23683.88
600.65	23819.63
600.81	24020.92
600.97	23936.66
601.12	24280.72
601.28	23847.72
601.44	23545.79
601.59	23449.83
601.75	23257.90
601.91	23227.48
602.06	23063.64
602.22	23491.96
602.37	23346.84
602.53	23412.38
602.69	23922.62
602.84	23910.91
603.00	24044.32
603.16	24428.17
603.31	24006.87
603.47	24032.62
603.62	24004.53
603.78	23939.00
603.94	23601.96
604.09	23662.82
604.25	24013.90
604.40	23789.20
604.56	23992.83
604.71	23838.36
604.87	23714.31
605.03	23810.27
605.18	23215.77
605.34	23522.38
605.49	23241.52
605.65	23506.00
605.80	23693.24
605.96	23255.56
606.12	22958.31
606.27	23194.71
606.43	22988.74
606.58	23255.56
606.74	23459.19
606.89	23496.64
607.05	23257.90
607.20	23461.53
607.36	23080.02
607.51	23243.86
607.67	22974.70
607.82	22656.39
607.98	22799.16
608.13	23026.19
608.29	22396.59
608.44	22574.47
608.60	22249.13
608.75	22258.49
608.91	22384.88
609.06	22293.60
609.22	22579.15
609.37	22382.54
609.53	22530.00
609.68	22258.49
609.84	21888.69
609.99	22005.72
610.15	21923.80
610.30	21994.01
610.46	22494.89
610.61	22464.46
610.76	22768.73
610.92	23012.15
611.07	23431.10
611.23	23049.60
611.38	23040.23
611.54	22586.17
611.69	22195.30
611.84	21893.37
612.00	21766.98
612.15	21467.39
612.31	21631.23
612.46	21446.33
612.62	21645.27
612.77	21839.54
612.92	21654.64
613.08	21661.66
613.23	20882.26
613.39	20706.72
613.54	20592.03
613.69	20886.94
613.85	20856.51
614.00	20863.54
614.15	21284.83
614.31	21104.61
614.46	21226.32
614.62	20936.09
614.77	21373.77
614.92	21219.30
615.08	20978.22
615.23	21223.98
615.38	20695.02
615.54	20521.82
615.69	20058.39
615.84	19412.40
616.00	19344.53
616.15	20130.95
616.30	19901.58
616.46	20280.74
616.61	19697.95
616.76	20194.14
616.92	20198.82
617.07	20280.74
617.22	20006.90
617.37	20222.23
617.53	20376.70
617.68	20451.60
617.83	20645.87
617.99	20648.21
618.14	20706.72
618.29	20484.37
618.45	20250.32
618.60	19812.63
618.75	19847.74
618.90	19623.05
619.06	20032.65
619.21	20493.73
619.36	20547.56
619.51	20095.84
619.67	20123.93
619.82	20187.12
619.97	20355.64
620.12	20109.88
620.28	19964.77
620.43	20173.08
620.58	20065.41
620.73	20224.57
620.89	19920.30
621.04	19812.63
621.19	20009.24
621.34	19543.47
621.49	19314.10
621.65	19119.84
621.80	19393.68
621.95	19054.30
622.10	19365.59
622.25	19531.77
622.41	19218.14
622.56	19101.11
622.71	18956.00
622.86	18841.31
623.01	18853.02
623.16	19098.77
623.32	19101.11
623.47	18813.23
623.62	19021.53
623.77	18906.85
623.92	18766.42
624.07	18008.08
624.23	18497.25
624.38	18141.49
624.53	18188.30
624.68	18551.09
624.83	18181.28
624.98	17895.74
625.13	17825.52
625.29	18242.14
625.44	18132.13
625.59	18403.63
625.74	18185.96
625.89	18113.41
626.04	18391.93
626.19	18162.56
626.34	18192.98
626.49	18181.28
626.65	18288.95
626.80	18167.24
626.95	18057.23
627.10	18148.51
627.25	17680.41
627.40	16917.39
627.55	16783.98
627.70	16613.12
627.85	16863.56
628.00	16828.45
628.15	17043.78
628.30	17149.11
628.45	17296.56
628.60	17280.18
628.76	17399.54
628.91	17406.56
629.06	17565.72
629.21	17212.30
629.36	17036.76
629.51	16849.52
629.66	16961.86
629.81	16566.31
629.96	16545.25
630.11	16933.78
630.26	16765.26
630.41	17078.89
630.56	16992.29
630.71	17060.16
630.86	17128.04
631.01	16783.98
631.16	16648.23
631.31	16294.81
631.46	16133.31
631.61	16507.80
631.76	16765.26
631.91	16463.33
632.06	16673.98
632.21	17130.38
632.36	16933.78
632.51	16809.73
632.66	16912.71
632.81	16472.69
632.96	16978.25
633.10	16844.84
633.25	16664.61
633.40	16524.18
633.55	16645.89
633.70	16697.38
633.85	16566.31
634.00	16411.84
634.15	16500.78
634.30	16589.72
634.45	16397.79
634.60	16484.39
634.75	16224.59
634.90	16294.81
635.05	16631.85
635.19	16505.46
635.34	16425.88
635.49	16203.53
635.64	16135.65
635.79	16009.26
635.94	15946.07
636.09	16175.44
636.24	16393.11
636.39	16262.04
636.53	16563.97
636.68	16250.34
636.83	16322.90
636.98	16430.56
637.13	16187.14
637.28	16229.27
637.43	16444.60
637.57	16301.83
637.72	15922.66
637.87	16308.85
638.02	16086.50
638.17	16196.51
638.32	16341.62
638.46	16350.98
638.61	16248.00
638.76	15939.05
638.91	15948.41
639.06	15550.52
639.20	15777.55
639.35	15562.22
639.50	15456.90
639.65	15630.10
639.80	15604.35
639.94	15611.37
640.09	15936.71
640.24	15644.14
640.39	15583.29
640.54	15262.63
640.68	15082.41
640.83	15407.75
640.98	15159.65
641.13	14991.13
641.27	15164.33
641.42	15159.65
641.57	15016.88
641.72	14885.81
641.86	15220.50
642.01	15049.64
642.16	15440.51
642.31	15267.31
642.45	15442.85
642.60	15161.99
642.75	15169.01
642.90	15145.61
643.04	15180.71
643.19	15014.54
643.34	14703.25
643.48	14707.93
643.63	14836.66
643.78	14846.02
643.93	15297.74
644.07	14953.68
644.22	15279.02
644.37	15103.48
644.51	14857.72
644.66	14731.33
644.81	14813.25
644.95	14911.55
645.10	14853.04
645.25	14427.06
645.39	14511.32
645.54	14403.66
645.69	14485.58
645.83	14277.27
645.98	14160.24
646.13	14225.78
646.27	14160.24
646.42	14099.39
646.57	14190.67
646.71	14207.05
646.86	14125.13
647.00	14045.55
647.15	13961.30
647.30	14059.60
647.44	13853.63
647.59	13666.39
647.74	13638.30
647.88	13694.47
648.03	13916.83
648.17	13715.54
648.32	14162.58
648.47	14235.14
648.61	13912.14
648.76	13598.51
648.90	13303.60
649.05	12891.67
649.20	12720.81
649.34	12718.47
649.49	12795.71
649.63	13256.79
649.78	13486.17
649.92	13270.84
650.07	13650.00
650.21	13734.26
650.36	14052.58
650.51	13788.10
650.65	14253.86
650.80	13769.37
650.94	13933.21
651.09	13319.99
651.23	13336.37
651.38	12842.52
651.52	12915.08
651.67	13214.66
651.81	13240.41
651.96	13200.62
652.10	13460.42
652.25	13357.44
652.39	13631.28
652.54	13373.82
652.68	13415.95
652.83	13369.14
652.97	13425.31
653.12	13284.88
653.26	13350.42
653.41	13472.12
653.55	13514.25
653.70	13107.00
653.84	13336.37
653.99	13202.96
654.13	12779.32
654.27	12704.43
654.42	12549.95
654.56	12596.76
654.71	12615.49
654.85	12580.38
655.00	12552.29
655.14	12358.03
655.29	12184.83
655.43	12191.85
655.57	11475.65
655.72	10736.04
655.86	9762.37
656.01	9062.55
656.15	9404.27
656.30	10026.86
656.44	10703.27
656.58	11241.59
656.73	11377.34
656.87	11690.98
657.01	11744.81
657.16	12121.63
657.30	12196.53
657.45	12156.74
657.59	12196.53
657.73	12461.01
657.88	12676.34
658.02	12608.47
658.16	12355.69
658.31	12456.33
658.45	12301.86
658.60	12362.71
658.74	12093.55
658.88	12138.02
659.03	12168.45
659.17	11822.05
659.31	12058.44
659.46	12065.46
659.60	12107.59
659.74	12271.43
659.89	12402.50
660.03	12306.54
660.17	12292.49
660.32	12353.35
660.46	12332.28
660.60	12046.74
660.74	12011.63
660.89	12065.46
661.03	12063.12
661.17	12250.36
661.32	12152.06
661.46	12280.79
661.60	12215.26
661.74	12336.96
661.89	12233.98
662.03	12191.85
662.17	12016.31
662.31	11913.33
662.46	11838.43
662.60	12173.13
662.74	11630.12
662.88	11796.30
663.03	11482.67
663.17	11548.20
663.31	11513.10
663.45	11559.91
663.60	11536.50
663.74	11421.81
663.88	11602.04
664.02	11468.62
664.17	11510.75
664.31	11536.50
664.45	11627.78
664.59	11660.55
664.73	11459.26
664.88	11730.76
665.02	11344.58
665.16	11529.48
665.30	11571.61
665.44	11414.79
665.59	11403.09
665.73	11321.17
665.87	11190.10
666.01	11026.26
666.15	10930.30
666.29	11204.14
666.44	11021.58
666.58	11234.57
666.72	11159.67
666.86	11089.46
667.00	10998.18
667.14	11143.29
667.28	10803.91
667.43	10981.79
667.57	10927.96
667.71	10832.00
667.85	11103.50
667.99	10883.49
668.13	10717.31
668.27	10981.79
668.41	10876.47
668.56	10616.67
668.70	10829.66
668.84	10707.95
668.98	10705.61
669.12	10712.63
669.26	10920.94
669.40	10593.26
669.54	10480.92
669.68	10499.64
669.82	10399.00
669.96	10516.03
670.10	10312.40
670.25	10345.17
670.39	10342.83
670.53	10356.87
670.67	10134.52
670.81	10200.05
670.95	10127.50
671.09	9989.41
671.23	10015.15
671.37	9820.89
671.51	10071.33
671.65	10068.98
671.79	9865.36
671.93	9930.89
672.07	10181.33
672.21	9966.00
672.35	10125.16
672.49	10080.69
672.63	9956.64
672.77	9631.30
672.91	9832.59
673.05	9909.83
673.19	9872.38
673.33	9834.93
673.47	9832.59
673.61	9781.10
673.75	9774.08
673.89	9652.37
674.03	9666.41
674.17	9544.70
674.31	9731.95
674.45	9528.32
674.59	9528.32
674.73	9664.07
674.87	9479.17
675.01	9303.63
675.15	9460.45
675.29	9502.58
675.43	9336.40
675.56	9303.63
675.70	9383.21
675.84	9233.41
675.98	8982.98
676.12	9362.14
676.26	9322.35
676.40	9123.41
676.54	9132.77
676.68	9181.92
676.82	8964.25
676.96	9027.45
677.10	8959.57
677.23	9139.79
677.37	8954.89
677.51	8884.67
677.65	9027.45
677.79	8842.54
677.93	8769.99
678.07	8936.17
678.21	8655.30
678.34	8491.46
678.48	8596.79
678.62	8512.53
678.76	8690.41
678.90	8746.58
679.04	8795.73
679.18	8561.68
679.31	8545.30
679.45	8505.51
679.59	8545.30
679.73	8442.31
679.87	8248.05
680.00	8191.88
680.14	8238.69
680.28	8236.35
680.42	8091.23
680.56	8271.45
680.70	8161.45
680.83	8135.70
680.97	7866.54
681.11	7971.86
681.25	7946.12
681.39	8030.38
681.52	8273.79
681.66	7981.23
681.80	8081.87
681.94	7843.14
682.07	8229.32
682.21	7894.63
682.35	7847.82
682.49	7691.00
682.62	7669.94
682.76	7625.47
682.90	7599.72
683.04	7744.83
683.17	7520.14
683.31	7454.61
683.45	7414.82
683.59	7389.07
683.72	7290.77
683.86	7241.62
684.00	7187.79
684.13	7098.84
684.27	7393.75
684.41	7506.10
684.55	7494.40
684.68	7379.71
684.82	7349.28
684.96	7208.85
685.09	7122.25
685.23	7002.88
685.37	6829.68
685.50	7052.03
685.64	7075.44
685.78	6984.16
685.91	7037.99
686.05	6885.86
686.19	6787.55
686.32	6462.22
686.46	5479.19
686.60	4842.57
686.73	4533.62
686.87	4421.27
687.01	4264.46
687.14	4428.29
687.28	4486.81
687.42	4676.39
687.55	4917.47
687.69	5212.37
687.82	5486.22
687.96	5603.24
688.10	5572.82
688.23	5678.14
688.37	5430.04
688.50	5416.00
688.64	5284.93
688.78	5245.14
688.91	5233.44
689.05	5280.25
689.18	5160.88
689.32	5057.90
689.46	5226.42
689.59	5181.95
689.73	5144.50
689.86	5357.49
690.00	5301.31
690.13	5018.11
690.27	5184.29
690.41	5291.95
690.54	5284.93
690.68	5266.21
690.81	5352.81
690.95	5383.23
691.08	5387.91
691.22	5238.12
691.35	5451.11
691.49	5540.05
691.62	5437.06
691.76	5502.60
691.89	5453.45
692.03	5366.85
692.16	5158.54
692.30	5207.69
692.43	5060.24
692.57	4985.34
692.70	5090.67
692.84	5146.84
692.97	5104.71
693.11	4990.02
693.24	5100.03
693.38	5057.90
693.51	4973.64
693.65	4889.38
693.78	4814.48
693.92	4917.47
694.05	4842.57
694.19	4596.81
694.32	4847.25
694.45	4851.93
694.59	4865.97
694.72	4870.65
694.86	4751.29
694.99	4842.57
695.13	4704.48
695.26	4685.75
695.39	4660.01
695.53	4704.48
695.66	4671.71
695.80	4608.51
695.93	4638.94
696.07	4727.88
696.20	4681.07
696.33	4744.27
696.47	4875.34
696.60	4683.41
696.73	4840.23
696.87	4959.60
697.00	4847.25
697.14	4664.69
697.27	4802.78
697.40	4514.89
697.54	4344.03
697.67	4624.90
697.80	4477.44
697.94	4430.63
698.07	4297.22
698.21	4404.89
698.34	4535.96
698.47	4205.94
698.61	4234.03
698.74	4308.93
698.87	4205.94
699.01	4241.05
699.14	4299.56
699.27	4285.52
699.40	4184.88
699.54	4290.20
699.67	4182.54
699.80	4056.15
699.94	4074.87
700.07	3962.53
700.20	3875.93
700.34	3871.25
700.47	3901.67
700.60	3896.99
700.73	3894.65
700.87	3918.06
701.00	3784.65
701.13	3613.79
701.26	3761.24
701.40	3620.81
701.53	3761.24
701.66	3707.41
701.79	3747.20
701.93	3747.20
702.06	3637.19
702.19	3655.92
702.32	3740.18
702.46	3679.32
702.59	3463.99
702.72	3496.76
702.85	3686.34
702.99	3688.68
703.12	3702.73
703.25	3471.01
703.38	3639.53
703.51	3548.25
703.65	3435.91
703.78	3524.85
703.91	3581.02
704.04	3545.91
704.17	3557.61
704.31	3421.86
704.44	3400.80
704.57	3557.61
704.70	3566.98
704.83	3548.25
704.96	3421.86
705.10	3449.95
705.23	3428.88
>>>>>End Processed Spectral Data<<<<<
