SpectraSuite Data File
++++++++++++++++++++++++++++++++++++
Date: Mon Oct 07 14:53:50 GMT-05:00 2013
User: price-jones
Dark Spectrum Present: No
Reference Spectrum Present: No
Number of Sampled Component Spectra: 1
Spectrometers: USB2+H05261
Integration Time (usec): 100000 (USB2+H05261)
Spectra Averaged: 1 (USB2+H05261)
Boxcar Smoothing: 0 (USB2+H05261)
Correct for Electrical Dark: No (USB2+H05261)
Strobe/Lamp Enabled: No (USB2+H05261)
Correct for Detector Non-linearity: No (USB2+H05261)
Correct for Stray Light: No (USB2+H05261)
Number of Pixels in Processed Spectrum: 2048
>>>>>Begin Processed Spectral Data<<<<<
365.73	0.00
365.92	0.00
366.12	0.00
366.32	0.00
366.52	0.00
366.72	0.00
366.91	0.00
367.11	0.00
367.31	0.00
367.51	0.00
367.70	0.00
367.90	0.00
368.10	0.00
368.30	0.00
368.49	0.00
368.69	0.00
368.89	0.00
369.09	0.00
369.28	0.00
369.48	0.00
369.68	0.00
369.87	0.00
370.07	0.00
370.27	0.00
370.47	540.66
370.66	3045.04
370.86	3571.66
371.06	3911.04
371.25	4131.05
371.45	3581.02
371.65	3194.83
371.84	3026.31
372.04	3124.62
372.24	3517.83
372.44	3698.05
372.63	3737.84
372.83	3316.54
373.03	3105.89
373.22	2822.69
373.42	2820.35
373.62	3361.01
373.81	3756.56
374.01	3730.81
374.21	3344.63
374.40	3061.42
374.60	3229.94
374.79	3569.32
374.99	4215.30
375.19	4463.40
375.38	4442.34
375.58	4262.12
375.78	4194.24
375.97	4348.72
376.17	4475.10
376.37	4587.45
376.56	4571.07
376.76	4655.33
376.95	5078.96
377.15	5369.19
377.35	5626.65
377.54	5799.85
377.74	5968.37
377.93	6017.52
378.13	5959.00
378.33	5610.26
378.52	5188.97
378.72	4908.10
378.91	4798.10
379.11	4716.18
379.31	4648.30
379.50	4566.39
379.70	4877.68
379.89	5350.46
380.09	5687.50
380.28	5888.79
380.48	5959.00
380.68	5837.30
380.87	5664.10
381.07	5242.80
381.26	4826.18
381.46	4486.81
381.65	4383.82
381.85	4245.73
382.04	4109.98
382.24	3744.86
382.43	3592.72
382.63	3424.20
382.83	3613.79
383.02	3716.77
383.22	3609.11
383.41	3630.17
383.61	3988.27
383.80	4458.72
384.00	5013.43
384.19	5570.48
384.39	5970.71
384.58	5867.72
384.78	5785.80
384.97	5626.65
385.17	5317.70
385.36	5039.17
385.56	5013.43
385.75	5083.64
385.95	5490.90
386.14	6150.93
386.34	6134.54
386.53	5872.40
386.72	5544.73
386.92	5362.17
387.11	5734.31
387.31	6136.88
387.50	5970.71
387.70	5783.46
387.89	5600.90
388.09	5738.99
388.28	5818.57
388.48	5804.53
388.67	6111.14
388.86	6911.60
389.06	7260.34
389.25	7826.75
389.45	7833.77
389.64	7936.76
389.84	7707.38
390.03	7478.01
390.22	7730.79
390.42	7854.84
390.61	8491.46
390.81	8896.38
391.00	9125.75
391.19	9001.70
391.39	8854.25
391.58	8278.47
391.78	7702.70
391.97	7489.71
392.16	6911.60
392.36	6462.22
392.55	5146.84
392.75	4131.05
392.94	3382.07
393.13	3269.73
393.33	3812.73
393.52	5088.32
393.71	6246.89
393.91	6888.20
394.10	7407.80
394.29	8163.79
394.49	8784.03
394.68	9413.63
394.88	9509.60
395.07	9900.47
395.26	9987.07
395.46	9397.25
395.65	9228.73
395.84	7920.37
396.04	6544.14
396.23	5474.51
396.42	4421.27
396.62	4269.14
396.81	4844.91
397.00	6368.60
397.19	7997.61
397.39	9514.28
397.58	10923.28
397.77	11534.16
397.97	12053.76
398.16	11960.14
398.35	12442.29
398.55	12837.84
398.74	13537.66
398.93	13645.32
399.12	13404.25
399.32	12943.16
399.51	13165.51
399.70	14298.33
399.90	13973.00
400.09	14090.02
400.28	13813.84
400.47	14101.73
400.67	14974.75
400.86	15147.95
401.05	15094.11
401.24	14883.47
401.44	15370.30
401.63	15239.23
401.82	15559.88
402.01	15325.83
402.21	15716.70
402.40	15859.47
402.59	14984.11
402.78	14586.22
402.97	13909.80
403.17	14523.02
403.36	15660.52
403.55	15971.82
403.74	16456.31
403.93	15447.54
404.13	14445.79
404.32	14129.81
404.51	14679.84
404.70	15880.53
404.89	16011.60
405.09	15646.48
405.28	15066.03
405.47	14984.11
405.66	15346.89
405.85	14721.97
406.05	14377.91
406.24	14665.80
406.43	15133.90
406.62	15950.75
406.81	16093.52
407.00	15377.32
407.20	14757.08
407.39	15030.92
407.58	15805.64
407.77	16196.51
407.96	17090.59
408.15	16978.25
408.34	16872.92
408.54	18024.47
408.73	17869.99
408.92	17823.18
409.11	17121.02
409.30	16304.17
409.49	15461.58
409.68	14368.55
409.87	13991.72
410.07	14672.82
410.26	15943.73
410.45	16865.90
410.64	17706.15
410.83	17937.87
411.02	18265.54
411.21	19143.24
411.40	18822.59
411.59	18651.73
411.78	19073.03
411.98	18375.55
412.17	19037.92
412.36	18771.10
412.55	18546.40
412.74	18232.77
412.93	17708.49
413.12	17907.44
413.31	19552.84
413.50	19910.94
413.69	19875.83
413.88	19257.93
414.07	18944.30
414.26	19206.44
414.45	19950.73
414.64	19836.04
414.83	19962.43
415.02	19517.73
415.22	19510.71
415.41	20100.52
415.60	20409.47
415.79	21394.84
415.98	21727.19
416.17	21926.14
416.36	21336.32
416.55	20919.71
416.74	20285.42
416.93	19810.29
417.12	19936.68
417.31	19896.89
417.50	20521.82
417.69	20985.24
417.88	21139.72
418.07	20592.03
418.26	20449.26
418.45	20334.57
418.64	21493.14
418.83	22274.88
419.02	21701.45
419.21	21818.47
419.39	20542.88
419.58	19826.68
419.77	19978.81
419.96	20470.33
420.15	21710.81
420.34	22274.88
420.53	22995.76
420.72	23543.45
420.91	23374.93
421.10	23344.50
421.29	23021.51
421.48	21874.65
421.67	22806.18
421.86	22773.41
422.05	20917.37
422.24	18827.27
422.43	18703.22
422.61	20716.08
422.80	22277.22
422.99	22410.63
423.18	21420.58
423.37	21364.41
423.56	20814.38
423.75	21586.76
423.94	22019.76
424.13	20884.60
424.32	21226.32
424.50	20896.30
424.69	20802.68
424.88	20699.70
425.07	20802.68
425.26	20945.45
425.45	20697.36
425.64	20311.17
425.83	20006.90
426.01	21214.62
426.20	22089.98
426.39	21738.90
426.58	20271.38
426.77	18588.53
426.96	18113.41
427.15	18597.90
427.33	20184.78
427.52	20858.85
427.71	21205.25
427.90	20793.32
428.09	20912.69
428.28	20229.25
428.46	19524.75
428.65	19218.14
428.84	19524.75
429.03	19894.55
429.22	19084.73
429.40	17958.93
429.59	16123.95
429.78	14450.47
429.97	14410.68
430.16	14593.24
430.34	14775.80
430.53	14546.43
430.72	14958.36
430.91	16409.50
431.10	19545.81
431.28	23033.21
431.47	24566.26
431.66	25348.00
431.85	22827.24
432.03	21345.69
432.22	20400.11
432.41	20870.56
432.60	23161.94
432.79	24023.26
432.97	24734.78
433.16	24449.24
433.35	22211.68
433.54	19981.15
433.72	18679.82
433.91	18845.99
434.10	21458.03
434.28	23089.38
434.47	24170.71
434.66	23606.64
434.85	22937.25
435.03	23138.54
435.22	23833.68
435.41	25207.57
435.59	25064.80
435.78	25319.92
435.97	26169.53
436.16	26361.45
436.34	25652.27
436.53	25387.79
436.72	25453.33
436.90	24079.43
437.09	23599.62
437.28	23323.44
437.46	24638.82
437.65	24425.83
437.84	22991.08
438.02	20767.57
438.21	20430.54
438.40	21612.51
438.58	23592.60
438.77	24357.96
438.96	24863.51
439.14	25408.86
439.33	25893.35
439.52	26663.38
439.70	25935.48
439.89	25345.66
440.08	24893.94
440.26	24610.73
440.45	25429.92
440.63	26726.58
440.82	28177.71
441.01	28519.43
441.19	28133.24
441.38	28474.96
441.57	29378.40
441.75	29979.92
441.94	29998.65
442.12	29572.67
442.31	30078.22
442.50	30216.32
442.68	29993.97
442.87	29362.02
443.05	29207.55
443.24	29507.13
443.43	30024.39
443.61	30471.43
443.80	31000.40
443.98	29219.25
444.17	29139.67
444.35	31042.53
444.54	31468.50
444.73	31005.08
444.91	29827.79
445.10	28620.07
445.28	27756.41
445.47	27346.82
445.65	27323.41
445.84	27889.82
446.02	29006.26
446.21	29802.04
446.39	29137.33
446.58	29869.92
446.77	30373.13
446.95	30520.59
447.14	31632.34
447.32	31810.22
447.51	31323.39
447.69	30012.69
447.88	29542.24
448.06	29902.68
448.25	31030.82
448.43	30899.75
448.62	30218.66
448.80	30228.02
448.99	30508.88
449.17	30693.79
449.36	31061.25
449.54	31772.77
449.73	32224.50
449.91	32907.93
450.10	33860.53
450.28	33975.22
450.46	33624.14
450.65	33720.10
450.83	33537.54
451.02	32926.66
451.20	32877.51
451.39	32746.44
451.57	32369.61
451.76	32566.21
451.94	32280.67
452.13	31711.92
452.31	30480.80
452.49	28807.31
452.68	29511.81
452.86	28999.24
453.05	29392.45
453.23	30567.40
453.42	31239.13
453.60	31732.98
453.78	32535.79
453.97	31992.78
454.15	32257.26
454.34	31246.15
454.52	31630.00
454.70	30785.07
454.89	30871.67
455.07	31168.91
455.26	31503.61
455.44	32961.76
455.62	33684.99
455.81	33582.01
455.99	33340.93
456.17	32814.31
456.36	33064.75
456.54	33926.07
456.73	34113.31
456.91	34448.00
457.09	34703.12
457.28	35571.46
457.46	33738.82
457.64	33439.23
457.83	33198.16
458.01	31990.44
458.19	33097.52
458.38	32989.85
458.56	34267.78
458.74	34043.09
458.93	33418.17
459.11	33472.00
459.29	33017.94
459.48	33216.88
459.66	33130.28
459.84	33603.07
460.03	33989.26
460.21	33694.35
460.39	34405.88
460.57	34691.42
460.76	35749.34
460.94	35119.74
461.12	34632.91
461.31	34471.41
461.49	34876.32
461.67	34487.79
461.85	35866.37
462.04	35674.45
462.22	35414.65
462.40	35852.33
462.59	35512.95
462.77	35449.75
462.95	35035.48
463.13	34986.33
463.32	35002.71
463.50	34824.83
463.68	34665.67
463.86	34422.26
464.05	34330.98
464.23	33003.89
464.41	33621.80
464.59	33046.02
464.78	34073.52
464.96	34436.30
465.14	33965.85
465.32	34658.65
465.50	35901.48
465.69	35997.44
465.87	35047.18
466.05	34377.79
466.23	32727.71
466.41	32023.21
466.60	33167.73
466.78	33048.36
466.96	33694.35
467.14	33881.60
467.32	34934.84
467.51	34918.45
467.69	33308.16
467.87	34209.27
468.05	34338.00
468.23	34380.13
468.41	34513.54
468.60	34801.43
468.78	34616.52
468.96	34394.17
469.14	35534.01
469.32	35232.08
469.50	33834.78
469.69	34230.33
469.87	33132.62
470.05	33413.49
470.23	33170.07
470.41	33818.40
470.59	34052.45
470.77	33886.28
470.95	34637.59
471.14	34738.23
471.32	35211.02
471.50	36910.25
471.68	37294.10
471.86	37345.59
472.04	37743.48
472.22	37612.41
472.40	36259.58
472.58	35702.53
472.77	35377.20
472.95	35910.84
473.13	37165.37
473.31	35468.48
473.49	36444.48
473.67	37006.21
473.85	37113.87
474.03	37979.87
474.21	37787.95
474.39	38169.46
474.57	38361.38
474.75	38581.39
474.93	38007.96
475.12	37497.72
475.30	37418.14
475.48	37488.36
475.66	38146.05
475.84	37954.13
476.02	37312.82
476.20	37097.49
476.38	37441.55
476.56	38623.52
476.74	39260.15
476.92	39814.85
477.10	40081.67
477.28	41429.82
477.46	40753.41
477.64	41525.78
477.82	41425.14
478.00	42003.25
478.18	41373.65
478.36	41069.38
478.54	41031.93
478.72	41329.18
478.90	42108.58
479.08	43124.37
479.26	43863.98
479.44	43885.04
479.62	43178.20
479.80	43255.44
479.98	43695.46
480.16	43882.70
480.34	43267.14
480.52	43629.93
480.70	43763.34
480.88	43955.26
481.06	45074.04
481.24	45090.42
481.41	45607.68
481.59	46461.97
481.77	45958.76
481.95	45420.44
482.13	45453.20
482.31	45624.06
482.49	46579.00
482.67	46199.83
482.85	46443.25
483.03	46581.34
483.21	47533.94
483.39	47536.28
483.57	46356.65
483.74	46422.19
483.92	46344.95
484.10	46625.81
484.28	47557.35
484.46	48172.91
484.64	48484.20
484.82	47665.01
485.00	47199.24
485.18	46483.04
485.35	44800.19
485.53	42209.22
485.71	38768.63
485.89	37750.50
486.07	39735.27
486.25	42747.54
486.43	45382.99
486.61	46155.36
486.78	45851.09
486.96	46424.53
487.14	48034.81
487.32	48795.49
487.50	50131.93
487.68	50803.67
487.85	51004.95
488.03	50862.18
488.21	50761.54
488.39	49947.03
488.57	49502.33
488.75	48753.36
488.92	49837.03
489.10	52062.88
489.28	53446.13
489.46	54059.35
489.64	53778.49
489.81	53958.71
489.99	53638.06
490.17	53757.42
490.35	53911.90
490.53	53890.83
490.70	53296.34
490.88	53289.32
491.06	54134.25
491.24	54258.30
491.41	53193.36
491.59	51440.29
491.77	50555.57
491.95	51915.42
492.13	53029.52
492.30	54314.47
492.48	54815.35
492.66	55508.14
492.84	55480.06
493.01	55133.66
493.19	54733.43
493.37	54569.59
493.54	54054.67
493.72	54777.90
493.90	55849.86
494.08	56261.80
494.25	56526.28
494.43	56963.96
494.61	57275.25
494.79	57289.29
494.96	57020.13
495.14	56605.86
495.32	55636.87
495.49	54845.77
495.67	56161.15
495.85	57291.63
496.02	57670.80
496.20	57750.38
496.38	57139.50
496.55	56994.39
496.73	57378.23
496.91	57652.08
497.09	58052.31
497.26	58485.31
497.44	57530.37
497.62	57324.40
497.79	56580.11
497.97	55255.37
498.14	55421.55
498.32	56427.98
498.50	57308.02
498.67	58094.44
498.85	57834.64
499.03	57984.43
499.20	58152.95
499.38	58148.27
499.56	58033.58
499.73	57579.52
499.91	57247.16
500.08	56722.88
500.26	56055.83
500.44	56779.06
500.61	57240.14
500.79	57050.56
500.97	56727.56
501.14	56502.87
501.32	56598.83
501.49	56222.01
501.67	56566.07
501.84	57041.20
502.02	57509.30
502.20	57743.36
502.37	57848.68
502.55	57944.64
502.72	58347.21
502.90	58663.19
503.07	58501.69
503.25	58262.96
503.43	57256.53
503.60	56718.20
503.78	56067.53
503.95	56355.42
504.13	57815.91
504.30	58688.93
504.48	58525.10
504.65	58206.78
504.83	58152.95
505.01	58560.20
505.18	59147.68
505.36	59798.35
505.53	59868.56
505.71	59777.28
505.88	59835.80
506.06	59377.05
506.23	58810.64
506.41	58555.52
506.58	58899.58
506.76	58726.38
506.93	58876.18
507.11	58379.98
507.28	58805.96
507.46	58117.84
507.63	57874.43
507.81	57602.92
507.98	57701.23
508.16	58412.75
508.33	58815.32
508.50	59166.40
508.68	59419.18
508.85	59847.50
509.03	59929.42
509.20	59854.52
509.38	59070.44
509.55	58300.40
509.73	58440.84
509.90	58972.14
510.08	59215.55
510.25	59257.68
510.42	59002.56
510.60	58887.88
510.77	59114.91
510.95	59540.89
511.12	59849.84
511.30	60210.28
511.47	60399.86
511.64	60252.41
511.82	60123.68
511.99	59451.95
512.17	58934.69
512.34	58335.51
512.51	58674.89
512.69	58934.69
512.86	59014.27
513.04	59461.31
513.21	59274.07
513.38	59028.31
513.56	58649.14
513.73	58101.46
513.90	58176.36
514.08	58075.71
514.25	58494.67
514.43	58618.72
514.60	58829.37
514.77	58941.71
514.95	58911.28
515.12	58824.68
515.29	59290.45
515.47	59749.20
515.64	59800.69
515.81	59454.29
515.99	58770.85
516.16	57542.07
516.33	55416.86
516.51	53799.55
516.68	53104.41
516.85	52694.82
517.03	53038.88
517.20	55693.05
517.37	57977.41
517.54	58974.48
517.72	58482.97
517.89	56320.31
518.06	53935.30
518.24	53961.05
518.41	56437.34
518.58	57839.32
518.75	57766.76
518.93	57951.66
519.10	57900.17
519.27	58398.71
519.45	58590.63
519.62	59173.42
519.79	59648.55
519.96	59367.69
520.14	58990.86
520.31	58150.61
520.48	58017.20
520.65	58433.81
520.83	59332.58
521.00	59765.58
521.17	59365.35
521.34	59091.51
521.52	59238.96
521.69	59716.43
521.86	60303.90
522.03	59763.24
522.20	58852.77
522.38	57799.53
522.55	57609.95
522.72	58230.19
522.89	58454.88
523.07	58644.46
523.24	59133.63
523.41	59833.46
523.58	59896.65
523.75	60498.17
523.92	60327.31
524.10	60282.84
524.27	60327.31
524.44	59922.40
524.61	59945.80
524.78	59604.08
524.96	59749.20
525.13	59732.81
525.30	59994.95
525.47	60479.44
525.64	60238.37
525.81	59674.30
525.98	58040.60
526.16	56781.40
526.33	56245.41
526.50	56030.08
526.67	55437.93
526.84	56214.99
527.01	56989.70
527.18	57818.25
527.36	58590.63
527.53	59707.07
527.70	59613.44
527.87	59435.56
528.04	58702.98
528.21	59260.02
528.38	59971.55
528.55	60346.03
528.72	60671.37
528.89	60683.07
529.07	60631.58
529.24	60149.43
529.41	59203.85
529.58	58805.96
529.75	58810.64
529.92	59241.30
530.09	59627.49
530.26	60121.34
530.43	60423.27
530.60	60456.04
530.77	60657.32
530.94	60926.49
531.11	60296.88
531.28	59927.08
531.46	59852.18
531.63	59894.31
531.80	59971.55
531.97	59341.94
532.14	58817.66
532.31	57865.06
532.48	56807.14
532.65	56933.53
532.82	57965.71
532.99	58841.07
533.16	59351.30
533.33	59945.80
533.50	59704.73
533.67	59138.32
533.84	58527.44
534.01	59016.61
534.18	59135.98
534.35	59351.30
534.52	59098.53
534.69	59374.71
534.86	59620.47
535.03	59784.30
535.20	60315.61
535.37	60647.96
535.54	60856.27
535.71	60411.57
535.88	60058.15
536.05	59458.97
536.22	59185.13
536.38	58890.22
536.55	58370.62
536.72	57717.61
536.89	57703.57
537.06	58550.84
537.23	59498.76
537.40	59473.01
537.57	59615.79
537.74	59168.74
537.91	59346.62
538.08	59281.09
538.25	59262.36
538.42	59517.48
538.59	59487.06
538.75	58812.98
538.92	58501.69
539.09	58497.01
539.26	58344.87
539.43	58012.52
539.60	57998.48
539.77	58466.58
539.94	58323.81
540.11	57343.12
540.28	56741.61
540.44	56924.17
540.61	57425.04
540.78	57450.79
540.95	57996.13
541.12	58489.99
541.29	58515.73
541.46	59035.33
541.62	58794.26
541.79	58588.29
541.96	57965.71
542.13	58124.86
542.30	58457.22
542.47	58511.05
542.63	58176.36
542.80	58141.25
542.97	58260.62
543.14	57895.49
543.31	58244.23
543.48	58621.06
543.64	59353.65
543.81	59622.81
543.98	59519.82
544.15	58684.25
544.32	58094.44
544.48	58342.53
544.65	58763.83
544.82	59040.01
544.99	58670.21
545.16	58328.49
545.32	58075.71
545.49	59009.59
545.66	59437.90
545.83	59117.25
546.00	58431.47
546.16	58300.40
546.33	58365.94
546.50	58368.28
546.67	58759.15
546.83	58293.38
547.00	58515.73
547.17	57841.66
547.34	57200.35
547.50	56975.66
547.67	57628.67
547.84	57598.24
548.00	58106.14
548.17	58560.20
548.34	58398.71
548.51	58291.04
548.67	58368.28
548.84	58185.72
549.01	58560.20
549.18	58262.96
549.34	58157.63
549.51	58244.23
549.68	58166.99
549.84	58066.35
550.01	57691.86
550.18	57645.05
550.34	57738.68
550.51	57745.70
550.68	57939.96
550.84	57478.88
551.01	57584.20
551.18	57361.85
551.34	57661.44
551.51	58042.95
551.68	58113.16
551.84	58340.19
552.01	58244.23
552.18	58064.01
552.34	57242.48
552.51	56966.30
552.68	56732.25
552.84	57448.45
553.01	57649.74
553.18	57338.44
553.34	57418.02
553.51	57523.35
553.67	57883.79
553.84	58162.31
554.01	57867.40
554.17	57598.24
554.34	57614.63
554.51	57684.84
554.67	58155.29
554.84	58103.80
555.00	57820.59
555.17	57418.02
555.33	57558.45
555.50	57521.01
555.67	57478.88
555.83	57193.33
556.00	56973.32
556.16	57200.35
556.33	56652.67
556.50	56453.72
556.66	56530.96
556.83	56229.03
556.99	56509.89
557.16	56547.34
557.32	56832.89
557.49	57006.09
557.65	56746.29
557.82	57111.41
557.98	56769.69
558.15	56367.12
558.32	55650.92
558.48	54522.78
558.65	54817.69
558.81	55400.48
558.98	55648.58
559.14	55863.91
559.31	56051.15
559.47	55994.98
559.64	55613.47
559.80	54988.55
559.97	54960.46
560.13	55583.04
560.30	56612.88
560.46	57111.41
560.63	57411.00
560.79	57406.32
560.96	56828.21
561.12	55978.59
561.29	54883.22
561.45	54798.96
561.61	55583.04
561.78	56023.06
561.94	56041.79
562.11	55686.03
562.27	55618.15
562.44	56161.15
562.60	56147.11
562.77	56336.69
562.93	56294.56
563.10	56119.02
563.26	55657.94
563.42	55634.53
563.59	55426.23
563.75	55339.63
563.92	55412.18
564.08	55566.66
564.24	55784.33
564.41	55922.42
564.57	55613.47
564.74	55700.07
564.90	55557.30
565.07	55152.38
565.23	54944.08
565.39	54335.54
565.56	54157.66
565.72	53666.14
565.88	54351.92
566.05	54342.56
566.21	54649.17
566.38	54754.49
566.54	54752.15
566.70	55222.60
566.87	55353.67
567.03	55288.13
567.19	55777.31
567.36	55152.38
567.52	55075.15
567.68	54944.08
567.85	54260.64
568.01	54199.79
568.17	53516.35
568.34	53624.01
568.50	53450.81
568.66	53862.75
568.83	54145.95
568.99	54181.06
569.15	54454.90
569.32	54262.98
569.48	53811.26
569.64	53801.89
569.81	53710.61
569.97	53502.31
570.13	53340.81
570.30	52669.08
570.46	52523.96
570.62	52219.69
570.78	51835.84
570.95	52264.16
571.11	52896.11
571.27	52973.34
571.43	53305.70
571.60	53551.46
571.76	53874.45
571.92	53984.46
572.09	53986.80
572.25	54061.69
572.41	53935.30
572.57	53982.12
572.74	53970.41
572.90	53352.51
573.06	53504.65
573.22	53588.91
573.38	53509.33
573.55	53495.28
573.71	53698.91
573.87	53455.50
574.03	53434.43
574.20	53488.26
574.36	52893.77
574.52	52971.00
574.68	52795.46
574.84	52601.20
575.01	51987.98
575.17	51927.13
575.33	52128.41
575.49	52322.68
575.65	52348.42
575.82	52399.91
575.98	52322.68
576.14	52388.21
576.30	52699.50
576.46	52865.68
576.62	52821.21
576.79	52467.79
576.95	52027.77
577.11	52133.09
577.27	52144.80
577.43	52013.73
577.59	51842.87
577.75	51599.45
577.92	50869.20
578.08	50696.00
578.24	50436.20
578.40	51058.79
578.56	51494.13
578.72	51517.53
578.88	51463.70
579.04	51604.13
579.21	51704.77
579.37	51819.46
579.53	51842.87
579.69	52004.36
579.85	52289.91
580.01	51838.18
580.17	51615.83
580.33	51557.32
580.49	51482.42
580.65	51452.00
580.82	51662.64
580.98	52074.58
581.14	51868.61
581.30	51681.37
581.46	51742.22
581.62	52039.47
581.78	52065.22
581.94	52367.15
582.10	51915.42
582.26	52020.75
582.42	52247.78
582.58	52020.75
582.74	51896.70
582.90	52034.79
583.06	51760.95
583.22	51686.05
583.38	51437.95
583.54	51470.72
583.70	51646.26
583.86	51377.10
584.02	51569.02
584.18	51592.43
584.34	51299.86
584.50	51164.11
584.66	51222.62
584.82	50487.70
584.98	50993.25
585.14	50220.87
585.30	49673.19
585.46	49214.44
585.62	49528.08
585.78	49928.31
585.94	49418.07
586.10	49748.09
586.26	50176.40
586.42	50487.70
586.58	50960.48
586.74	50993.25
586.90	50506.42
587.06	50806.01
587.22	50391.73
587.38	49734.04
587.54	49916.61
587.70	49668.51
587.86	49385.30
588.02	48629.31
588.18	48584.84
588.34	47966.94
588.49	45745.77
588.65	43154.80
588.81	42759.25
588.97	43470.77
589.13	43555.03
589.29	43126.71
589.45	43807.81
589.61	45247.24
589.77	46663.26
589.93	47243.71
590.08	47917.79
590.24	48336.74
590.40	48327.38
590.56	48531.01
590.72	48374.19
590.88	47547.98
591.04	47618.20
591.20	47325.63
591.35	47100.94
591.51	47690.76
591.67	47494.15
591.83	47725.86
591.99	47531.60
592.15	47824.17
592.31	48076.94
592.46	47980.98
592.62	47360.74
592.78	47302.23
592.94	47370.10
593.10	47304.57
593.26	47849.91
593.41	47885.02
593.57	47969.28
593.73	47246.05
593.89	47007.32
594.05	46579.00
594.20	46225.58
594.36	46232.60
594.52	45986.85
594.68	45593.64
594.84	45801.94
594.99	46557.94
595.15	46791.99
595.31	47042.43
595.47	46396.44
595.62	47187.54
595.78	47084.56
595.94	47267.12
596.10	46990.94
596.25	46698.37
596.41	46710.07
596.57	46361.33
596.73	47100.94
596.88	46747.52
597.04	46672.62
597.20	46291.12
597.36	46447.93
597.51	46471.34
597.67	46349.63
597.83	46024.29
597.99	46333.24
598.14	45748.11
598.30	45724.71
598.46	45263.62
598.61	45404.05
598.77	45684.92
598.93	46021.95
599.09	46148.34
599.24	46541.55
599.40	45876.84
599.56	46213.88
599.71	45640.45
599.87	46347.29
600.03	45897.91
600.18	45198.09
600.34	45162.98
600.50	45289.37
600.65	44474.86
600.81	45415.76
600.97	45270.64
601.12	44519.33
601.28	45195.74
601.44	44573.16
601.59	44451.45
601.75	43880.36
601.91	44287.62
602.06	44144.84
602.22	44467.84
602.37	44308.68
602.53	44425.71
602.69	45202.77
602.84	45324.47
603.00	45837.05
603.16	45888.54
603.31	45387.67
603.47	45703.64
603.62	44917.22
603.78	45326.81
603.94	44706.57
604.09	45167.66
604.25	44570.82
604.40	44933.60
604.56	44617.63
604.71	45373.63
604.87	44690.19
605.03	44601.25
605.18	44292.30
605.34	44072.29
605.49	43945.90
605.65	44421.03
605.80	44280.60
605.96	44280.60
606.12	43702.48
606.27	43430.98
606.43	43540.99
606.58	44282.94
606.74	44172.93
606.89	43856.96
607.05	43899.09
607.20	44168.25
607.36	43730.57
607.51	43283.53
607.67	43150.12
607.82	43306.93
607.98	43000.32
608.13	42522.85
608.29	42557.96
608.44	42536.90
608.60	42588.39
608.75	42754.57
608.91	42419.87
609.06	42700.73
609.22	43058.84
609.37	42417.53
609.53	42857.55
609.68	42106.24
609.84	41462.59
609.99	41165.34
610.15	40884.48
610.30	41553.87
610.46	41670.90
610.61	42300.50
610.76	42504.13
610.92	42710.10
611.07	42841.17
611.23	42595.41
611.38	42572.00
611.54	42185.82
611.69	41436.84
611.84	40926.61
612.00	40575.53
612.15	40643.40
612.31	40737.02
612.46	41015.55
612.62	41163.00
612.77	41474.29
612.92	41752.82
613.08	40414.03
613.23	39782.09
613.39	39281.21
613.54	38892.68
613.69	39555.05
613.85	39072.90
614.00	39707.19
614.15	40151.89
614.31	40189.34
614.46	40318.07
614.62	39927.20
614.77	40533.40
614.92	40210.40
615.08	39950.60
615.23	40215.08
615.38	39611.23
615.54	39098.65
615.69	38115.62
615.84	37102.17
616.00	37113.87
616.15	37453.25
616.30	37940.08
616.46	37687.31
616.61	37528.15
616.76	38000.94
616.92	38382.45
617.07	38740.55
617.22	38600.12
617.37	38679.69
617.53	39421.64
617.68	39056.52
617.83	39084.61
617.99	39091.63
618.14	38850.55
618.29	38768.63
618.45	38548.62
618.60	38333.29
618.75	38003.28
618.90	37572.62
619.06	38260.74
619.21	38384.79
619.36	38583.73
619.51	38361.38
619.67	38382.45
619.82	38309.89
619.97	38101.58
620.12	38017.32
620.28	38265.42
620.43	38719.48
620.58	38422.23
620.73	38251.38
620.89	37769.22
621.04	37116.22
621.19	37460.27
621.34	37406.44
621.49	36566.19
621.65	36940.68
621.80	37043.66
621.95	36701.94
622.10	36938.33
622.25	36568.53
622.41	36837.69
622.56	36278.30
622.71	35999.78
622.86	35772.75
623.01	36023.19
623.16	36591.94
623.32	36055.95
623.47	36390.65
623.62	35964.67
623.77	35449.75
623.92	35618.27
624.07	35321.02
624.23	34560.35
624.38	34653.97
624.53	34937.18
624.68	35208.68
624.83	34644.61
624.98	34740.57
625.13	34316.93
625.29	34349.70
625.44	34335.66
625.59	34136.71
625.74	34717.17
625.89	34988.67
626.04	34831.85
626.19	35112.72
626.34	34593.12
626.49	34501.84
626.65	34714.83
626.80	34672.70
626.95	34616.52
627.10	34256.08
627.25	33628.82
627.40	32861.12
627.55	32060.66
627.70	31782.13
627.85	31892.14
628.00	32215.13
628.15	33120.92
628.30	33144.33
628.45	33118.58
628.60	33205.18
628.76	32804.95
628.91	32924.32
629.06	33048.36
629.21	32772.18
629.36	32280.67
629.51	32275.99
629.66	32032.57
629.81	31255.51
629.96	31557.44
630.11	31889.80
630.26	32430.46
630.41	32591.96
630.56	32804.95
630.71	33127.94
630.86	32545.15
631.01	32126.19
631.16	31845.33
631.31	31168.91
631.46	30944.22
631.61	31110.40
631.76	31559.78
631.91	31901.50
632.06	31690.85
632.21	32278.33
632.36	32304.07
632.51	32313.44
632.66	32212.79
632.81	32156.62
632.96	31978.74
633.10	31548.08
633.25	31234.45
633.40	31433.39
633.55	31440.42
633.70	31711.92
633.85	31534.04
634.00	31257.85
634.15	31428.71
634.30	31318.71
634.45	31515.31
634.60	31917.89
634.75	31779.79
634.90	31323.39
635.05	31459.14
635.19	31056.57
635.34	31140.83
635.49	30995.71
635.64	30803.79
635.79	30450.37
635.94	30199.93
636.09	30471.43
636.24	30918.48
636.39	30703.15
636.53	30799.11
636.68	30916.14
636.83	30883.37
636.98	31185.30
637.13	31215.72
637.28	31477.86
637.43	31248.49
637.57	31194.66
637.72	30927.84
637.87	30565.06
638.02	30735.92
638.17	30637.61
638.32	30672.72
638.46	30646.97
638.61	30749.96
638.76	30466.75
638.91	29979.92
639.06	29764.59
639.20	29799.70
639.35	29848.85
639.50	29699.06
639.65	29324.57
639.80	29123.29
639.94	29961.20
640.09	29694.38
640.24	29736.51
640.39	29139.67
640.54	29095.20
640.68	29137.33
640.83	28971.15
640.98	28402.40
641.13	29003.92
641.27	29060.09
641.42	28865.83
641.57	28716.03
641.72	28528.79
641.86	28723.05
642.01	28823.70
642.16	29352.66
642.31	29383.09
642.45	29640.54
642.60	28718.37
642.75	28636.45
642.90	28687.95
643.04	28418.78
643.19	28540.49
643.34	28851.78
643.48	27826.63
643.63	28353.25
643.78	28479.64
643.93	28788.59
644.07	28746.46
644.22	28514.75
644.37	28861.15
644.51	28308.78
644.66	28254.95
644.81	27688.54
644.95	28128.56
645.10	27782.16
645.25	27697.90
645.39	27529.38
645.54	27388.95
645.69	27274.26
645.83	26876.37
645.98	26618.91
646.13	26906.80
646.27	26864.67
646.42	27201.71
646.57	27391.29
646.71	26817.86
646.86	26616.57
647.00	26792.11
647.15	26670.40
647.30	26473.80
647.44	26300.60
647.59	26267.83
647.74	25867.60
647.88	25858.24
648.03	25865.26
648.17	26288.90
648.32	26202.30
648.47	26401.24
648.61	26426.99
648.76	26263.15
648.90	25696.74
649.05	24971.18
649.20	24620.10
649.34	24013.90
649.49	24500.73
649.63	25127.99
649.78	25186.50
649.92	25649.93
650.07	26059.52
650.21	25993.99
650.36	26263.15
650.51	26235.06
650.65	26324.01
650.80	26288.90
650.94	25996.33
651.09	25640.57
651.23	25111.61
651.38	24372.00
651.52	24512.43
651.67	25078.84
651.81	25046.07
651.96	25022.67
652.10	25591.42
652.25	25549.29
652.39	25352.68
652.54	25603.12
652.68	25413.54
652.83	25268.42
652.97	25296.51
653.12	25336.30
653.26	24926.71
653.41	25261.40
653.55	25453.33
653.70	25006.28
653.84	25296.51
653.99	25135.01
654.13	24353.27
654.27	24056.03
654.42	24336.89
654.56	23871.12
654.71	23922.62
654.85	23758.78
655.00	23616.01
655.14	23555.15
655.29	22944.27
655.43	22616.60
655.57	21902.73
655.72	20402.45
655.86	18721.95
656.01	17818.50
656.15	17968.29
656.30	19133.88
656.44	20180.10
656.58	21092.91
656.73	21671.02
656.87	22178.92
657.01	22244.45
657.16	22944.27
657.30	23000.44
657.45	23426.42
657.59	23543.45
657.73	23700.26
657.88	23737.71
658.02	23723.67
658.16	23634.73
658.31	23208.75
658.45	23601.96
658.60	23384.29
658.74	23454.51
658.88	23028.53
659.03	22663.41
659.17	22761.71
659.31	22902.14
659.46	22827.24
659.60	23281.31
659.74	23314.08
659.89	23316.42
660.03	23367.91
660.17	23571.54
660.32	23367.91
660.46	23297.69
660.60	23204.07
660.74	22640.00
660.89	23248.54
661.03	22911.50
661.17	22794.48
661.32	22953.63
661.46	23073.00
661.60	22607.23
661.74	22960.66
661.89	22881.08
662.03	23000.44
662.17	22719.58
662.31	22696.17
662.46	22738.30
662.60	22724.26
662.74	22244.45
662.88	22754.69
663.03	22015.08
663.17	21680.38
663.31	21720.17
663.45	21860.60
663.60	21970.61
663.74	21823.16
663.88	21869.97
664.02	21535.27
664.17	21809.11
664.31	21825.50
664.45	22157.85
664.59	21916.78
664.73	22022.10
664.88	22286.58
665.02	21633.57
665.16	22258.49
665.30	21509.52
665.44	21809.11
665.59	21514.20
665.73	21291.85
665.87	20999.29
666.01	20999.29
666.15	21010.99
666.29	20613.10
666.44	21174.83
666.58	20952.48
666.72	20500.75
666.86	21146.74
667.00	20727.78
667.14	21191.21
667.28	21003.97
667.43	20732.47
667.57	20666.93
667.71	20629.48
667.85	20634.16
667.99	20421.17
668.13	20692.68
668.27	20657.57
668.41	20945.45
668.56	20166.06
668.70	20475.01
668.84	20617.78
668.98	20065.41
669.12	20257.34
669.26	20025.62
669.40	19946.05
669.54	20231.59
669.68	19786.89
669.82	19927.32
669.96	19960.09
670.10	19791.57
670.25	19761.14
670.39	19686.25
670.53	19555.18
670.67	19344.53
670.81	19381.98
670.95	19398.36
671.09	19257.93
671.23	19007.49
671.37	18979.40
671.51	19138.56
671.65	18754.71
671.79	18700.88
671.93	19136.22
672.07	19286.01
672.21	19307.08
672.35	19131.54
672.49	18721.95
672.63	19033.24
672.77	18600.24
672.91	18789.82
673.05	18621.30
673.19	18548.75
673.33	18724.29
673.47	18398.95
673.61	18389.59
673.75	18047.87
673.89	18693.86
674.03	18555.77
674.17	18333.42
674.31	18415.34
674.45	18190.64
674.59	17888.71
674.73	18015.10
674.87	17818.50
675.01	17781.05
675.15	17776.37
675.29	17795.09
675.43	17635.94
675.56	17734.24
675.70	17771.69
675.84	17448.69
675.98	17502.53
676.12	17699.13
676.26	17689.77
676.40	17420.61
676.54	17401.88
676.68	17132.72
676.82	17046.12
676.96	17064.85
677.10	17174.85
677.23	17135.06
677.37	17090.59
677.51	16973.56
677.65	17186.55
677.79	16688.02
677.93	16662.27
678.07	16676.32
678.21	16369.71
678.34	16451.63
678.48	16145.02
678.62	16376.73
678.76	15969.48
678.90	16046.71
679.04	16065.44
679.18	16194.17
679.31	15683.93
679.45	16161.40
679.59	16004.58
679.73	15761.17
679.87	15948.41
680.00	15695.63
680.14	15662.86
680.28	15466.26
680.42	15447.54
680.56	15634.78
680.70	15192.42
680.83	15176.03
680.97	14939.64
681.11	15108.16
681.25	15143.27
681.39	14848.36
681.52	15344.55
681.66	15220.50
681.80	15243.91
681.94	14965.39
682.07	15250.93
682.21	14841.34
682.35	14757.08
682.49	14700.90
682.62	14792.19
682.76	14626.01
682.90	14401.32
683.04	14375.57
683.17	14637.71
683.31	14160.24
683.45	14363.87
683.59	14270.25
683.72	13933.21
683.86	13575.11
684.00	13666.39
684.13	13631.28
684.27	13617.24
684.41	13689.79
684.55	13563.40
684.68	13891.08
684.82	13666.39
684.96	13507.23
685.09	13317.65
685.23	13085.94
685.37	13055.51
685.50	13193.60
685.64	12947.84
685.78	12762.94
685.91	12982.95
686.05	12982.95
686.19	12524.21
686.32	11812.68
686.46	10572.20
686.60	9359.80
686.73	8788.71
686.87	8131.02
687.01	8131.02
687.14	8257.41
687.28	8409.54
687.42	8917.44
687.55	9301.29
687.69	9802.16
687.82	10485.60
687.96	10637.73
688.10	10410.70
688.23	10497.30
688.37	10459.85
688.50	10164.95
688.64	10120.48
688.78	9900.47
688.91	9671.09
689.05	9893.44
689.18	9717.90
689.32	9638.33
689.46	9907.49
689.59	9827.91
689.73	9954.30
689.86	9879.40
690.00	9980.04
690.13	9994.09
690.27	10001.11
690.41	10092.39
690.54	9947.28
690.68	10024.51
690.81	10361.55
690.95	10054.94
691.08	9996.43
691.22	10040.90
691.35	9975.36
691.49	9982.38
691.62	10024.51
691.76	10115.80
691.89	10078.35
692.03	10001.11
692.16	10073.67
692.30	9865.36
692.43	9809.19
692.57	9788.12
692.70	9717.90
692.84	9509.60
692.97	9493.21
693.11	9483.85
693.24	9483.85
693.38	9509.60
693.51	9198.31
693.65	9301.29
693.78	9018.08
693.92	9036.81
694.05	9135.11
694.19	9064.89
694.32	9200.65
694.45	9107.02
694.59	8968.93
694.72	9198.31
694.86	8975.95
694.99	9233.41
695.13	8922.12
695.26	8837.86
695.39	8760.63
695.53	8692.75
695.66	8891.70
695.80	8592.11
695.93	8711.47
696.07	8753.60
696.20	8762.97
696.33	9022.77
696.47	9097.66
696.60	8987.66
696.73	9130.43
696.87	9008.72
697.00	9214.69
697.14	8877.65
697.27	8938.51
697.40	8603.81
697.54	8587.43
697.67	8339.33
697.80	8430.61
697.94	8430.61
698.07	8327.63
698.21	8049.10
698.34	8264.43
698.47	8051.44
698.61	7770.58
698.74	7948.46
698.87	8018.68
699.01	7964.84
699.14	7957.82
699.27	8088.89
699.40	7946.12
699.54	7810.37
699.67	7798.66
699.80	7595.04
699.94	7730.79
700.07	7557.59
700.20	7419.50
700.34	7414.82
700.47	7339.92
700.60	7309.49
700.73	7384.39
700.87	7283.75
701.00	7112.89
701.13	7250.98
701.26	7337.58
701.40	7070.76
701.53	7162.04
701.66	7169.06
701.79	6974.80
701.93	7112.89
702.06	7105.87
702.19	6988.84
702.32	7002.88
702.46	6836.70
702.59	6927.99
702.72	6834.36
702.85	6906.92
702.99	6885.86
703.12	7000.54
703.25	6745.42
703.38	6839.05
703.51	6778.19
703.65	6778.19
703.78	6567.54
703.91	6637.76
704.04	6637.76
704.17	6553.50
704.31	6548.82
704.44	6754.79
704.57	6698.61
704.70	6612.01
704.83	6532.44
704.96	6359.24
705.10	6242.21
705.23	6394.34
>>>>>End Processed Spectral Data<<<<<
