SpectraSuite Data File
++++++++++++++++++++++++++++++++++++
Date: Mon Oct 07 14:54:56 GMT-05:00 2013
User: price-jones
Dark Spectrum Present: No
Reference Spectrum Present: No
Number of Sampled Component Spectra: 1
Spectrometers: USB2+H05261
Integration Time (usec): 10000 (USB2+H05261)
Spectra Averaged: 1 (USB2+H05261)
Boxcar Smoothing: 0 (USB2+H05261)
Correct for Electrical Dark: No (USB2+H05261)
Strobe/Lamp Enabled: No (USB2+H05261)
Correct for Detector Non-linearity: No (USB2+H05261)
Correct for Stray Light: No (USB2+H05261)
Number of Pixels in Processed Spectrum: 2048
>>>>>Begin Processed Spectral Data<<<<<
365.73	0.00
365.92	0.00
366.12	0.00
366.32	0.00
366.52	0.00
366.72	0.00
366.91	0.00
367.11	0.00
367.31	0.00
367.51	0.00
367.70	0.00
367.90	0.00
368.10	0.00
368.30	0.00
368.49	0.00
368.69	0.00
368.89	0.00
369.09	0.00
369.28	0.00
369.48	0.00
369.68	0.00
369.87	0.00
370.07	0.00
370.27	0.00
370.47	0.00
370.66	0.00
370.86	95.96
371.06	110.01
371.25	117.03
371.45	32.77
371.65	0.00
371.84	91.28
372.04	37.45
372.24	77.24
372.44	84.26
372.63	154.48
372.83	86.60
373.03	110.01
373.22	39.79
373.42	0.00
373.62	100.64
373.81	182.56
374.01	173.20
374.21	126.39
374.40	18.72
374.60	56.17
374.79	95.96
374.99	128.73
375.19	203.63
375.38	266.82
375.58	175.54
375.78	182.56
375.97	208.31
376.17	102.98
376.37	250.44
376.56	191.92
376.76	271.50
376.95	306.61
377.15	341.72
377.35	306.61
377.54	374.49
377.74	315.97
377.93	322.99
378.13	355.76
378.33	346.40
378.52	248.10
378.72	208.31
378.91	215.33
379.11	177.88
379.31	273.84
379.50	205.97
379.70	205.97
379.89	330.02
380.09	355.76
380.28	358.10
380.48	372.15
380.68	311.29
380.87	379.17
381.07	227.03
381.26	280.86
381.46	194.26
381.65	131.07
381.85	149.79
382.04	133.41
382.24	105.32
382.43	135.75
382.63	121.71
382.83	98.30
383.02	119.37
383.22	93.62
383.41	114.69
383.61	133.41
383.80	222.35
384.00	264.48
384.19	369.80
384.39	409.59
384.58	381.51
384.78	315.97
384.97	285.55
385.17	297.25
385.36	262.14
385.56	280.86
385.75	201.29
385.95	353.42
386.14	322.99
386.34	390.87
386.53	292.57
386.72	252.78
386.92	241.08
387.11	346.40
387.31	297.25
387.50	259.80
387.70	269.16
387.89	266.82
388.09	290.23
388.28	322.99
388.48	283.20
388.67	341.72
388.86	404.91
389.06	463.43
389.25	477.47
389.45	477.47
389.64	482.15
389.84	510.24
390.03	500.87
390.22	489.17
390.42	571.09
390.61	552.37
390.81	671.73
391.00	720.88
391.19	643.65
391.39	620.24
391.58	641.31
391.78	447.04
391.97	461.09
392.16	430.66
392.36	348.74
392.55	259.80
392.75	168.52
392.94	117.03
393.13	56.17
393.33	124.05
393.52	194.26
393.71	337.04
393.91	383.85
394.10	521.94
394.29	559.39
394.49	641.31
394.68	678.76
394.88	608.54
395.07	725.57
395.26	718.54
395.46	655.35
395.65	671.73
395.84	526.62
396.04	461.09
396.23	227.03
396.42	173.20
396.62	166.18
396.81	243.42
397.00	346.40
397.19	592.16
397.39	699.82
397.58	856.64
397.77	891.74
397.97	889.40
398.16	802.80
398.35	894.08
398.55	1015.79
398.74	1093.03
398.93	1001.75
399.12	936.21
399.32	992.39
399.51	992.39
399.70	1093.03
399.90	1109.41
400.09	1029.84
400.28	1053.24
400.47	997.07
400.67	1095.37
400.86	1160.91
401.05	1238.14
401.24	1118.78
401.44	1221.76
401.63	1093.03
401.82	1116.44
402.01	1196.01
402.21	1203.04
402.40	1247.51
402.59	1116.44
402.78	1064.94
402.97	1015.79
403.17	1104.73
403.36	1256.87
403.55	1224.10
403.74	1242.82
403.93	1200.69
404.13	1116.44
404.32	1071.97
404.51	1118.78
404.70	1144.52
404.89	1228.78
405.09	1249.85
405.28	1261.55
405.47	1174.95
405.66	1125.80
405.85	1064.94
406.05	1102.39
406.24	1090.69
406.43	1205.38
406.62	1139.84
406.81	1181.97
407.00	1153.88
407.20	1233.46
407.39	1174.95
407.58	1207.72
407.77	1329.42
407.96	1275.59
408.15	1439.43
408.34	1331.76
408.54	1338.79
408.73	1385.60
408.92	1446.45
409.11	1348.15
409.30	1303.68
409.49	1188.99
409.68	1125.80
409.87	1118.78
410.07	1135.16
410.26	1284.95
410.45	1369.21
410.64	1378.58
410.83	1310.70
411.02	1530.71
411.21	1469.86
411.40	1371.55
411.59	1483.90
411.78	1448.79
411.98	1533.05
412.17	1523.69
412.36	1467.52
412.55	1359.85
412.74	1413.68
412.93	1338.79
413.12	1427.73
413.31	1444.11
413.50	1612.63
413.69	1563.48
413.88	1528.37
414.07	1432.41
414.26	1439.43
414.45	1563.48
414.64	1469.86
414.83	1549.43
415.02	1572.84
415.22	1526.03
415.41	1575.18
415.60	1575.18
415.79	1741.36
415.98	1757.74
416.17	1727.32
416.36	1657.10
416.55	1650.08
416.74	1638.38
416.93	1586.88
417.12	1535.39
417.31	1607.95
417.50	1636.03
417.69	1652.42
417.88	1668.80
418.07	1652.42
418.26	1664.12
418.45	1636.03
418.64	1724.97
418.83	1797.53
419.02	1797.53
419.21	1675.82
419.39	1682.85
419.58	1645.40
419.77	1563.48
419.96	1455.81
420.15	1668.80
420.34	1748.38
420.53	1797.53
420.72	1825.62
420.91	1982.43
421.10	1837.32
421.29	1844.34
421.48	1724.97
421.67	1771.79
421.86	1867.75
422.05	1568.16
422.24	1448.79
422.43	1549.43
422.61	1614.97
422.80	1760.08
422.99	1739.02
423.18	1657.10
423.37	1732.00
423.56	1710.93
423.75	1671.14
423.94	1671.14
424.13	1483.90
424.32	1558.80
424.50	1600.93
424.69	1544.75
424.88	1636.03
425.07	1614.97
425.26	1724.97
425.45	1612.63
425.64	1591.56
425.83	1575.18
426.01	1739.02
426.20	1739.02
426.39	1703.91
426.58	1584.54
426.77	1469.86
426.96	1409.00
427.15	1467.52
427.33	1502.62
427.52	1584.54
427.71	1675.82
427.90	1598.59
428.09	1558.80
428.28	1626.67
428.46	1425.39
428.65	1474.54
428.84	1420.71
429.03	1509.65
429.22	1416.02
429.40	1359.85
429.59	1308.36
429.78	1114.10
429.97	1076.65
430.16	1142.18
430.34	1104.73
430.53	1095.37
430.72	1109.41
430.91	1280.27
431.10	1341.13
431.28	1830.30
431.47	1991.80
431.66	2012.86
431.85	1856.04
432.03	1631.35
432.22	1500.28
432.41	1689.87
432.60	1902.86
432.79	1853.70
432.97	1839.66
433.16	1860.73
433.35	1748.38
433.54	1420.71
433.72	1378.58
433.91	1453.47
434.10	1724.97
434.28	1781.15
434.47	1863.07
434.66	1907.54
434.85	1753.06
435.03	1727.32
435.22	1797.53
435.41	1977.75
435.59	1891.15
435.78	1930.94
435.97	2040.95
436.16	2106.48
436.34	2143.93
436.53	1994.14
436.72	1987.11
436.90	1905.20
437.09	1893.49
437.28	1820.94
437.46	1942.64
437.65	1853.70
437.84	1736.68
438.02	1589.22
438.21	1633.69
438.40	1762.42
438.58	1795.19
438.77	1907.54
438.96	1926.26
439.14	2001.16
439.33	2024.56
439.52	2108.82
439.70	2043.29
439.89	1982.43
440.08	1900.52
440.26	1785.83
440.45	1977.75
440.63	2153.29
440.82	2314.79
441.01	2289.04
441.19	2265.64
441.38	2340.54
441.57	2270.32
441.75	2265.64
441.94	2303.09
442.12	2310.11
442.31	2317.13
442.50	2382.67
442.68	2282.02
442.87	2452.88
443.05	2246.91
443.24	2286.70
443.43	2305.43
443.61	2434.16
443.80	2464.58
443.98	2385.01
444.17	2284.36
444.35	2448.20
444.54	2466.92
444.73	2434.16
444.91	2401.39
445.10	2340.54
445.28	2076.06
445.47	2221.17
445.65	2050.31
445.84	2246.91
446.02	2132.23
446.21	2263.30
446.39	2342.88
446.58	2246.91
446.77	2392.03
446.95	2363.94
447.14	2417.77
447.32	2518.42
447.51	2342.88
447.69	2321.81
447.88	2385.01
448.06	2312.45
448.25	2375.64
448.43	2286.70
448.62	2429.48
448.80	2319.47
448.99	2260.96
449.17	2340.54
449.36	2317.13
449.54	2466.92
449.73	2626.08
449.91	2485.65
450.10	2635.44
450.28	2593.31
450.46	2530.12
450.65	2640.12
450.83	2656.51
451.02	2471.61
451.20	2576.93
451.39	2471.61
451.57	2506.71
451.76	2586.29
451.94	2476.29
452.13	2457.56
452.31	2385.01
452.49	2160.31
452.68	2275.00
452.86	2284.36
453.05	2314.79
453.23	2265.64
453.42	2389.69
453.60	2586.29
453.78	2518.42
453.97	2417.77
454.15	2441.18
454.34	2487.99
454.52	2429.48
454.70	2349.90
454.89	2422.45
455.07	2511.39
455.26	2448.20
455.44	2562.89
455.62	2513.74
455.81	2579.27
455.99	2623.74
456.17	2558.21
456.36	2459.90
456.54	2626.08
456.73	2586.29
456.91	2612.04
457.09	2754.81
457.28	2740.77
457.46	2715.02
457.64	2572.25
457.83	2424.80
458.01	2473.95
458.19	2427.14
458.38	2450.54
458.56	2572.25
458.74	2588.63
458.93	2567.57
459.11	2462.24
459.29	2527.78
459.48	2532.46
459.66	2541.82
459.84	2649.49
460.03	2736.09
460.21	2672.89
460.39	2668.21
460.57	2607.36
460.76	2715.02
460.94	2663.53
461.12	2565.23
461.31	2691.62
461.49	2684.59
461.67	2651.83
461.85	2857.79
462.04	2623.74
462.22	2885.88
462.40	2747.79
462.59	2813.32
462.77	2640.12
462.95	2747.79
463.13	2614.38
463.32	2705.66
463.50	2705.66
463.68	2815.66
463.86	2565.23
464.05	2612.04
464.23	2459.90
464.41	2553.52
464.59	2462.24
464.78	2651.83
464.96	2600.34
465.14	2546.50
465.32	2642.46
465.50	2665.87
465.69	2787.58
465.87	2691.62
466.05	2560.55
466.23	2459.90
466.41	2377.98
466.60	2476.29
466.78	2464.58
466.96	2452.88
467.14	2651.83
467.32	2581.61
467.51	2700.98
467.69	2480.97
467.87	2637.78
468.05	2562.89
468.23	2672.89
468.41	2595.65
468.60	2588.63
468.78	2506.71
468.96	2672.89
469.14	2729.06
469.32	2679.91
469.50	2502.03
469.69	2438.84
469.87	2541.82
470.05	2480.97
470.23	2466.92
470.41	2588.63
470.59	2532.46
470.77	2541.82
470.95	2614.38
471.14	2658.85
471.32	2663.53
471.50	2637.78
471.68	2808.64
471.86	2839.07
472.04	2796.94
472.22	2799.28
472.40	2733.75
472.58	2647.15
472.77	2677.57
472.95	2827.37
473.13	2759.49
473.31	2705.66
473.49	2658.85
473.67	2832.05
473.85	2862.48
474.03	2841.41
474.21	2972.48
474.39	2967.80
474.57	2949.08
474.75	2944.39
474.93	2925.67
475.12	2810.98
475.30	2745.45
475.48	2937.37
475.66	2892.90
475.84	2799.28
476.02	2857.79
476.20	2787.58
476.38	2813.32
476.56	2862.48
476.74	3063.76
476.92	2953.76
477.10	3063.76
477.28	3091.85
477.46	3199.51
477.64	3178.45
477.82	3141.00
478.00	3007.59
478.18	3047.38
478.36	3110.57
478.54	3080.14
478.72	3178.45
478.90	3103.55
479.08	3162.06
479.26	3375.05
479.44	3499.10
479.62	3290.79
479.80	3304.84
479.98	3377.39
480.16	3349.31
480.34	3173.77
480.52	3316.54
480.70	3459.31
480.88	3382.07
481.06	3431.23
481.24	3522.51
481.41	3524.85
481.59	3517.83
481.77	3620.81
481.95	3506.12
482.13	3606.77
482.31	3618.47
482.49	3728.47
482.67	3581.02
482.85	3634.85
483.03	3644.21
483.21	3595.06
483.39	3536.55
483.57	3538.89
483.74	3541.23
483.92	3658.26
484.10	3688.68
484.28	3700.39
484.46	3723.79
484.64	3794.01
484.82	3794.01
485.00	3637.19
485.18	3496.76
485.35	3442.93
485.53	3190.15
485.71	2832.05
485.89	2846.09
486.07	2988.86
486.25	3122.27
486.43	3508.46
486.61	3559.95
486.78	3494.42
486.96	3550.59
487.14	3843.16
487.32	3705.07
487.50	3831.46
487.68	3983.59
487.85	4100.62
488.03	4079.55
488.21	4152.11
488.39	3946.14
488.57	3850.18
488.75	3866.56
488.92	3936.78
489.10	4135.73
489.28	4231.69
489.46	4437.66
489.64	4395.53
489.81	4472.76
489.99	4299.56
490.17	4299.56
490.35	4440.00
490.53	4224.67
490.70	4329.99
490.88	4227.01
491.06	4477.44
491.24	4533.62
491.41	4379.14
491.59	4023.38
491.77	3964.87
491.95	3995.29
492.13	4315.95
492.30	4475.10
492.48	4533.62
492.66	4629.58
492.84	4737.24
493.01	4676.39
493.19	4620.22
493.37	4587.45
493.54	4465.74
493.72	4519.57
493.90	4732.56
494.08	4758.31
494.25	4821.50
494.43	4858.95
494.61	5032.15
494.79	5018.11
494.96	5158.54
495.14	4851.93
495.32	4617.88
495.49	4713.84
495.67	4828.53
495.85	4842.57
496.02	4957.25
496.20	5245.14
496.38	5008.75
496.55	4823.84
496.73	5008.75
496.91	5090.67
497.09	5207.69
497.26	5170.24
497.44	5212.37
497.62	4943.21
497.79	4788.74
497.97	4566.39
498.14	4671.71
498.32	4667.03
498.50	5076.62
498.67	5259.18
498.85	5025.13
499.03	5074.28
499.20	5310.68
499.38	5107.05
499.56	5149.18
499.73	5048.54
499.91	5076.62
500.08	4929.17
500.26	4716.18
500.44	4823.84
500.61	4896.40
500.79	4837.89
500.97	4748.95
501.14	4781.71
501.32	4793.42
501.49	4718.52
501.67	4952.57
501.84	4938.53
502.02	4987.68
502.20	4903.42
502.37	5207.69
502.55	5135.14
502.72	5100.03
502.90	5331.74
503.07	5181.95
503.25	5107.05
503.43	4968.96
503.60	4734.90
503.78	4674.05
503.95	4739.58
504.13	4983.00
504.30	5233.44
504.48	5217.05
504.65	5195.99
504.83	5118.75
505.01	5266.21
505.18	5399.62
505.36	5472.17
505.53	5341.10
505.71	5439.40
505.88	5291.95
506.06	5280.25
506.23	5305.99
506.41	5085.98
506.58	5273.23
506.76	5266.21
506.93	5111.73
507.11	5011.09
507.28	5224.08
507.46	5184.29
507.63	4950.23
507.81	4938.53
507.98	5114.07
508.16	5083.64
508.33	5359.83
508.50	5406.64
508.68	5338.76
508.85	5504.94
509.03	5558.77
509.20	5170.24
509.38	5226.42
509.55	5069.60
509.73	5177.26
509.90	5387.91
510.08	5221.74
510.25	5341.10
510.42	5186.63
510.60	5324.72
510.77	5427.70
510.95	5589.20
511.12	5500.26
511.30	5502.60
511.47	5621.97
511.64	5430.04
511.82	5362.17
511.99	5266.21
512.17	5275.57
512.34	5268.55
512.51	5060.24
512.69	5163.22
512.86	5207.69
513.04	5259.18
513.21	5181.95
513.38	5184.29
513.56	5027.47
513.73	5102.37
513.90	5142.16
514.08	5203.01
514.25	5160.88
514.43	5132.79
514.60	5331.74
514.77	5301.31
514.95	5266.21
515.12	5153.86
515.29	5350.46
515.47	5350.46
515.64	5446.43
515.81	5355.15
515.99	5280.25
516.16	4842.57
516.33	4622.56
516.51	4360.42
516.68	4262.12
516.85	4147.43
517.03	4023.38
517.20	4479.79
517.37	4950.23
517.54	5156.20
517.72	5203.01
517.89	4793.42
518.06	4393.19
518.24	4404.89
518.41	4711.50
518.58	5001.72
518.75	4990.02
518.93	4983.00
519.10	5081.30
519.27	5111.73
519.45	5043.85
519.62	5287.27
519.79	5301.31
519.96	5303.65
520.14	5062.58
520.31	5111.73
520.48	4844.91
520.65	5181.95
520.83	5364.51
521.00	5413.66
521.17	5240.46
521.34	5130.45
521.52	5334.08
521.69	5336.42
521.86	5416.00
522.03	5331.74
522.20	5184.29
522.38	4973.64
522.55	4959.60
522.72	5170.24
522.89	5090.67
523.07	5233.44
523.24	5144.50
523.41	5345.78
523.58	5432.38
523.75	5666.44
523.92	5518.98
524.10	5547.07
524.27	5547.07
524.44	5200.67
524.61	5336.42
524.78	5394.93
524.96	5231.10
525.13	5371.53
525.30	5392.59
525.47	5547.07
525.64	5572.82
525.81	5228.76
525.98	5018.11
526.16	4835.55
526.33	4718.52
526.50	4702.14
526.67	4521.92
526.84	4645.96
527.01	4908.10
527.18	4950.23
527.36	5151.52
527.53	5322.38
527.70	5371.53
527.87	5357.49
528.04	5186.63
528.21	5383.23
528.38	5427.70
528.55	5561.11
528.72	5481.53
528.89	5708.57
529.07	5530.69
529.24	5198.33
529.41	5207.69
529.58	5057.90
529.75	5060.24
529.92	5296.63
530.09	5172.58
530.26	5270.89
530.43	5497.92
530.60	5469.83
530.77	5472.17
530.94	5582.18
531.11	5284.93
531.28	5371.53
531.46	5355.15
531.63	5238.12
531.80	5455.79
531.97	5355.15
532.14	5130.45
532.31	4901.08
532.48	4774.69
532.65	4664.69
532.82	4828.53
532.99	5439.40
533.16	5261.52
533.33	5224.08
533.50	5172.58
533.67	5069.60
533.84	5097.69
534.01	5034.49
534.18	5308.34
534.35	5322.38
534.52	5118.75
534.69	5219.39
534.86	5385.57
535.03	5355.15
535.20	5563.45
535.37	5565.79
535.54	5561.11
535.71	5437.06
535.88	5322.38
536.05	5128.11
536.22	5177.26
536.38	5130.45
536.55	5001.72
536.72	4856.61
536.89	4936.19
537.06	4828.53
537.23	5249.82
537.40	5317.70
537.57	5179.61
537.74	5111.73
537.91	5200.67
538.08	5163.22
538.25	5245.14
538.42	5167.90
538.59	5277.91
538.75	5135.14
538.92	5006.41
539.09	5006.41
539.26	4903.42
539.43	4828.53
539.60	4987.68
539.77	5032.15
539.94	4983.00
540.11	4770.01
540.28	4702.14
540.44	4727.88
540.61	4882.36
540.78	4802.78
540.95	4896.40
541.12	4917.47
541.29	5111.73
541.46	5043.85
541.62	5224.08
541.79	4985.34
541.96	4954.91
542.13	4938.53
542.30	4908.10
542.47	5008.75
542.63	4837.89
542.80	4861.29
542.97	4980.66
543.14	4910.44
543.31	4882.36
543.48	5100.03
543.64	5111.73
543.81	5301.31
543.98	5362.17
544.15	5053.22
544.32	4987.68
544.48	5046.20
544.65	5085.98
544.82	5090.67
544.99	5022.79
545.16	4863.63
545.32	4865.97
545.49	5093.01
545.66	5170.24
545.83	5163.22
546.00	5083.64
546.16	4833.21
546.33	5013.43
546.50	4929.17
546.67	4999.38
546.83	4915.12
547.00	4865.97
547.17	4760.65
547.34	4652.98
547.50	4741.93
547.67	4826.18
547.84	4868.31
548.00	4959.60
548.17	4929.17
548.34	5111.73
548.51	4931.51
548.67	4926.83
548.84	4945.55
549.01	4922.15
549.18	4952.57
549.34	4894.06
549.51	5008.75
549.68	4891.72
549.84	4873.00
550.01	4833.21
550.18	5015.77
550.34	4777.03
550.51	4788.74
550.68	4873.00
550.84	4882.36
551.01	4901.08
551.18	4912.78
551.34	4898.74
551.51	4983.00
551.68	4994.70
551.84	4964.28
552.01	4919.81
552.18	4915.12
552.34	4690.43
552.51	4695.11
552.68	4648.30
552.84	4791.08
553.01	4791.08
553.18	4725.54
553.34	4800.44
553.51	4854.27
553.67	4800.44
553.84	5041.51
554.01	4819.16
554.17	4805.12
554.34	4718.52
554.51	4762.99
554.67	4915.12
554.84	4952.57
555.00	4854.27
555.17	4737.24
555.33	4730.22
555.50	4901.08
555.67	4954.91
555.83	4681.07
556.00	4580.43
556.16	4671.71
556.33	4531.28
556.50	4620.22
556.66	4493.83
556.83	4456.38
556.99	4631.92
557.16	4645.96
557.32	4477.44
557.49	4603.83
557.65	4559.36
557.82	4596.81
557.98	4571.07
558.15	4580.43
558.32	4458.72
558.48	4229.35
558.65	4227.01
558.81	4421.27
558.98	4428.29
559.14	4374.46
559.31	4468.08
559.47	4496.17
559.64	4372.12
559.80	4259.78
559.97	4243.39
560.13	4454.04
560.30	4641.28
560.46	4636.60
560.63	4814.48
560.79	4734.90
560.96	4704.48
561.12	4564.04
561.29	4301.90
561.45	4294.88
561.61	4451.70
561.78	4454.04
561.94	4472.76
562.11	4367.44
562.27	4341.69
562.44	4435.32
562.60	4479.79
562.77	4528.94
562.93	4631.92
563.10	4561.70
563.26	4470.42
563.42	4486.81
563.59	4175.52
563.75	4341.69
563.92	4339.35
564.08	4341.69
564.24	4372.12
564.41	4322.97
564.57	4360.42
564.74	4278.50
564.90	4346.37
565.07	4416.59
565.23	4166.15
565.39	4227.01
565.56	4215.30
565.72	4173.18
565.88	4229.35
566.05	4168.49
566.21	4058.49
566.38	4311.27
566.54	4381.48
566.70	4332.33
566.87	4231.69
567.03	4269.14
567.19	4367.44
567.36	4334.67
567.52	4287.86
567.68	4109.98
567.85	4142.75
568.01	4100.62
568.17	4016.36
568.34	4039.76
568.50	3887.63
568.66	4140.41
568.83	4051.47
568.99	4093.60
569.15	4212.96
569.32	4131.05
569.48	4149.77
569.64	3976.57
569.81	4135.73
569.97	4011.68
570.13	4053.81
570.30	3983.59
570.46	4018.70
570.62	3733.15
570.78	3749.54
570.95	3885.29
571.11	3976.57
571.27	3946.14
571.43	3983.59
571.60	4002.32
571.76	4119.34
571.92	4180.20
572.09	4156.79
572.25	4030.40
572.41	4215.30
572.57	4011.68
572.74	4170.83
572.90	4100.62
573.06	4135.73
573.22	4007.00
573.38	4044.45
573.55	3999.98
573.71	3985.93
573.87	4016.36
574.03	4074.87
574.20	4014.02
574.36	3943.80
574.52	3939.12
574.68	3955.51
574.84	3901.67
575.01	3927.42
575.17	3786.99
575.33	3840.82
575.49	3981.25
575.65	3936.78
575.82	3803.37
575.98	3798.69
576.14	3861.88
576.30	3854.86
576.46	3892.31
576.62	3833.80
576.79	3922.74
576.95	3803.37
577.11	3861.88
577.27	3805.71
577.43	3941.46
577.59	3817.41
577.75	3794.01
577.92	3686.34
578.08	3695.71
578.24	3777.62
578.40	3737.84
578.56	3756.56
578.72	3669.96
578.88	3669.96
579.04	3679.32
579.21	3969.55
579.37	3829.12
579.53	3822.09
579.69	3824.44
579.85	3758.90
580.01	3733.15
580.17	3653.58
580.33	3693.37
580.49	3735.50
580.65	3808.05
580.82	3609.11
580.98	3632.51
581.14	3796.35
581.30	3695.71
581.46	3857.20
581.62	3756.56
581.78	3889.97
581.94	3784.65
582.10	3908.69
582.26	3875.93
582.42	3812.73
582.58	3754.22
582.74	3805.71
582.90	3744.86
583.06	3908.69
583.22	3740.18
583.38	3805.71
583.54	3815.07
583.70	3665.28
583.86	3822.09
584.02	3770.60
584.18	3648.90
584.34	3782.31
584.50	3831.46
584.66	3737.84
584.82	3735.50
584.98	3665.28
585.14	3545.91
585.30	3517.83
585.46	3524.85
585.62	3421.86
585.78	3524.85
585.94	3494.42
586.10	3609.11
586.26	3522.51
586.42	3569.32
586.58	3700.39
586.74	3831.46
586.90	3644.21
587.06	3681.66
587.22	3709.75
587.38	3522.51
587.54	3433.57
587.70	3548.25
587.86	3363.35
588.02	3377.39
588.18	3393.78
588.34	3342.28
588.49	3096.53
588.65	2911.63
588.81	2965.46
588.97	3054.40
589.13	3052.06
589.29	2904.60
589.45	3124.62
589.61	3030.99
589.77	3122.27
589.93	3323.56
590.08	3379.73
590.24	3435.91
590.40	3435.91
590.56	3480.38
590.72	3445.27
590.88	3293.13
591.04	3335.26
591.20	3321.22
591.35	3290.79
591.51	3316.54
591.67	3407.82
591.83	3239.30
591.99	3372.71
592.15	3463.99
592.31	3452.29
592.46	3496.76
592.62	3346.97
592.78	3304.84
592.94	3314.20
593.10	3286.11
593.26	3274.41
593.41	3442.93
593.57	3346.97
593.73	3323.56
593.89	3283.77
594.05	3162.06
594.20	3225.26
594.36	3269.73
594.52	3180.79
594.68	3073.12
594.84	3110.57
594.99	3227.60
595.15	3208.87
595.31	3391.44
595.47	3297.81
595.62	3087.17
595.78	3421.86
595.94	3286.11
596.10	3173.77
596.25	3236.96
596.41	3227.60
596.57	3283.77
596.73	3187.81
596.88	3199.51
597.04	3325.90
597.20	3169.09
597.36	3136.32
597.51	3159.72
597.67	3166.74
597.83	3129.30
597.99	3143.34
598.14	3206.53
598.30	3049.72
598.46	3122.27
598.61	3042.70
598.77	3150.36
598.93	3087.17
599.09	3208.87
599.24	3332.92
599.40	3194.83
599.56	3248.66
599.71	3218.24
599.87	3213.56
600.03	3232.28
600.18	3225.26
600.34	3070.78
600.50	3126.96
600.65	2977.16
600.81	3087.17
600.97	3145.68
601.12	3073.12
601.28	3066.10
601.44	3234.62
601.59	2853.11
601.75	2979.50
601.91	2911.63
602.06	2972.48
602.22	2965.46
602.37	3066.10
602.53	2930.35
602.69	3082.49
602.84	3075.46
603.00	3133.98
603.16	3222.92
603.31	3126.96
603.47	3066.10
603.62	3063.76
603.78	3103.55
603.94	3258.03
604.09	3035.67
604.25	3098.87
604.40	3038.02
604.56	3178.45
604.71	3131.64
604.87	3105.89
605.03	3016.95
605.18	2993.55
605.34	2906.95
605.49	2993.55
605.65	3087.17
605.80	3152.70
605.96	3077.80
606.12	2977.16
606.27	3047.38
606.43	2972.48
606.58	2984.18
606.74	2937.37
606.89	3082.49
607.05	3075.46
607.20	2972.48
607.36	3054.40
607.51	3049.72
607.67	2944.39
607.82	2888.22
607.98	2890.56
608.13	2897.58
608.29	2871.84
608.44	2860.13
608.60	2864.82
608.75	2895.24
608.91	2883.54
609.06	2899.92
609.22	2878.86
609.37	2810.98
609.53	2937.37
609.68	2897.58
609.84	2705.66
609.99	2726.72
610.15	2834.39
610.30	2808.64
610.46	2806.30
610.61	2923.33
610.76	2918.65
610.92	2913.97
611.07	2789.92
611.23	2918.65
611.38	2979.50
611.54	3021.63
611.69	2827.37
611.84	2834.39
612.00	2771.19
612.15	2799.28
612.31	2780.56
612.46	2703.32
612.62	2785.24
612.77	2778.22
612.92	2700.98
613.08	2782.90
613.23	2810.98
613.39	2766.51
613.54	2722.04
613.69	2686.94
613.85	2644.81
614.00	2729.06
614.15	2614.38
614.31	2691.62
614.46	2789.92
614.62	2516.08
614.77	2654.17
614.92	2677.57
615.08	2675.23
615.23	2644.81
615.38	2605.02
615.54	2595.65
615.69	2602.68
615.84	2434.16
616.00	2464.58
616.15	2487.99
616.30	2567.57
616.46	2406.07
616.61	2487.99
616.76	2593.31
616.92	2633.10
617.07	2417.77
617.22	2520.76
617.37	2567.57
617.53	2630.76
617.68	2581.61
617.83	2668.21
617.99	2532.46
618.14	2656.51
618.29	2621.40
618.45	2499.69
618.60	2560.55
618.75	2569.91
618.90	2520.76
619.06	2544.16
619.21	2537.14
619.36	2649.49
619.51	2703.32
619.67	2602.68
619.82	2457.56
619.97	2502.03
620.12	2609.70
620.28	2480.97
620.43	2464.58
620.58	2534.80
620.73	2497.35
620.89	2567.57
621.04	2534.80
621.19	2417.77
621.34	2434.16
621.49	2427.14
621.65	2434.16
621.80	2399.05
621.95	2410.75
622.10	2436.50
622.25	2506.71
622.41	2518.42
622.56	2370.96
622.71	2188.40
622.86	2312.45
623.01	2282.02
623.16	2370.96
623.32	2359.26
623.47	2382.67
623.62	2434.16
623.77	2417.77
623.92	2387.35
624.07	2303.09
624.23	2389.69
624.38	2284.36
624.53	2277.34
624.68	2291.38
624.83	2256.28
624.98	2237.55
625.13	2317.13
625.29	2221.17
625.44	2260.96
625.59	2165.00
625.74	2324.15
625.89	2326.49
626.04	2260.96
626.19	2216.49
626.34	2476.29
626.49	2328.83
626.65	2363.94
626.80	2253.94
626.95	2200.10
627.10	2181.38
627.25	2064.35
627.40	2176.70
627.55	2132.23
627.70	2071.37
627.85	2118.18
628.00	2090.10
628.15	2083.08
628.30	2108.82
628.45	2214.15
628.60	2132.23
628.76	2174.36
628.91	2104.14
629.06	2113.50
629.21	2193.08
629.36	2033.93
629.51	2092.44
629.66	2139.25
629.81	1996.48
629.96	2057.33
630.11	2113.50
630.26	2172.02
630.41	2104.14
630.56	2195.42
630.71	2090.10
630.86	2083.08
631.01	2090.10
631.16	2071.37
631.31	2132.23
631.46	1921.58
631.61	2139.25
631.76	2162.66
631.91	2064.35
632.06	2211.81
632.21	2073.71
632.36	2143.93
632.51	1949.67
632.66	2097.12
632.81	2076.06
632.96	2104.14
633.10	2062.01
633.25	2043.29
633.40	1966.05
633.55	2069.03
633.70	2059.67
633.85	1853.70
634.00	2104.14
634.15	1998.82
634.30	2127.55
634.45	1989.46
634.60	1987.11
634.75	2136.91
634.90	2043.29
635.05	1987.11
635.19	1952.01
635.34	1966.05
635.49	1991.80
635.64	1991.80
635.79	1991.80
635.94	1966.05
636.09	1930.94
636.24	1905.20
636.39	1954.35
636.53	2017.54
636.68	1970.73
636.83	2078.40
636.98	1961.37
637.13	2054.99
637.28	2132.23
637.43	1989.46
637.57	1998.82
637.72	2076.06
637.87	1973.07
638.02	1940.30
638.17	1994.14
638.32	1872.43
638.46	1921.58
638.61	1954.35
638.76	1881.79
638.91	1940.30
639.06	1879.45
639.20	1905.20
639.35	1888.81
639.50	1851.36
639.65	1893.49
639.80	1977.75
639.94	1867.75
640.09	1898.17
640.24	1987.11
640.39	1902.86
640.54	1989.46
640.68	1837.32
640.83	1926.26
640.98	1837.32
641.13	1785.83
641.27	1781.15
641.42	1844.34
641.57	1905.20
641.72	1858.39
641.86	1741.36
642.01	1891.15
642.16	1856.04
642.31	1816.26
642.45	1823.28
642.60	1842.00
642.75	1867.75
642.90	1820.94
643.04	1813.92
643.19	1816.26
643.34	1858.39
643.48	1771.79
643.63	1804.55
643.78	1830.30
643.93	1717.95
644.07	1806.89
644.22	1790.51
644.37	1853.70
644.51	1739.02
644.66	1776.47
644.81	1790.51
644.95	1717.95
645.10	1788.17
645.25	1806.89
645.39	1849.02
645.54	1762.42
645.69	1687.53
645.83	1694.55
645.98	1657.10
646.13	1736.68
646.27	1652.42
646.42	1584.54
646.57	1741.36
646.71	1668.80
646.86	1724.97
647.00	1746.04
647.15	1551.78
647.30	1579.86
647.44	1680.50
647.59	1626.67
647.74	1612.63
647.88	1640.72
648.03	1650.08
648.17	1612.63
648.32	1706.25
648.47	1610.29
648.61	1694.55
648.76	1699.23
648.90	1713.27
649.05	1605.61
649.20	1565.82
649.34	1528.37
649.49	1586.88
649.63	1598.59
649.78	1582.20
649.92	1680.50
650.07	1617.31
650.21	1619.65
650.36	1701.57
650.51	1781.15
650.65	1673.48
650.80	1666.46
650.94	1689.87
651.09	1629.01
651.23	1614.97
651.38	1582.20
651.52	1476.88
651.67	1495.60
651.81	1556.46
651.96	1633.69
652.10	1647.74
652.25	1607.95
652.39	1680.50
652.54	1570.50
652.68	1671.14
652.83	1631.35
652.97	1720.29
653.12	1631.35
653.26	1736.68
653.41	1530.71
653.55	1673.48
653.70	1689.87
653.84	1511.99
653.99	1446.45
654.13	1462.83
654.27	1549.43
654.42	1537.73
654.56	1528.37
654.71	1490.92
654.85	1509.65
655.00	1411.34
655.14	1462.83
655.29	1376.24
655.43	1416.02
655.57	1364.53
655.72	1240.48
655.86	1158.57
656.01	1001.75
656.15	1032.18
656.30	1273.25
656.44	1270.91
656.58	1277.93
656.73	1322.40
656.87	1373.89
657.01	1289.64
657.16	1474.54
657.30	1409.00
657.45	1500.28
657.59	1572.84
657.73	1483.90
657.88	1455.81
658.02	1481.56
658.16	1441.77
658.31	1359.85
658.45	1404.32
658.60	1521.35
658.74	1418.36
658.88	1425.39
659.03	1385.60
659.17	1387.94
659.31	1448.79
659.46	1406.66
659.60	1373.89
659.74	1444.11
659.89	1462.83
660.03	1509.65
660.17	1453.47
660.32	1399.64
660.46	1446.45
660.60	1519.01
660.74	1448.79
660.89	1469.86
661.03	1350.49
661.17	1439.43
661.32	1313.04
661.46	1483.90
661.60	1338.79
661.74	1390.28
661.89	1366.87
662.03	1350.49
662.17	1439.43
662.31	1385.60
662.46	1434.75
662.60	1430.07
662.74	1294.32
662.88	1453.47
663.03	1263.89
663.17	1299.00
663.31	1322.40
663.45	1324.74
663.60	1385.60
663.74	1296.66
663.88	1240.48
664.02	1270.91
664.17	1329.42
664.31	1352.83
664.45	1324.74
664.59	1406.66
664.73	1399.64
664.88	1399.64
665.02	1364.53
665.16	1364.53
665.30	1348.15
665.44	1338.79
665.59	1291.98
665.73	1275.59
665.87	1219.42
666.01	1198.35
666.15	1303.68
666.29	1191.33
666.44	1263.89
666.58	1420.71
666.72	1226.44
666.86	1270.91
667.00	1282.61
667.14	1263.89
667.28	1242.82
667.43	1284.95
667.57	1177.29
667.71	1259.21
667.85	1294.32
667.99	1193.67
668.13	1299.00
668.27	1226.44
668.41	1231.12
668.56	1256.87
668.70	1320.06
668.84	1167.93
668.98	1247.51
669.12	1196.01
669.26	1242.82
669.40	1287.29
669.54	1160.91
669.68	1214.74
669.82	1207.72
669.96	1219.42
670.10	1303.68
670.25	1217.08
670.39	1064.94
670.53	1212.40
670.67	1107.07
670.81	1121.12
670.95	1097.71
671.09	1167.93
671.23	1100.05
671.37	1093.03
671.51	1055.58
671.65	1238.14
671.79	1078.99
671.93	1090.69
672.07	1095.37
672.21	1128.14
672.35	1123.46
672.49	1121.12
672.63	1111.75
672.77	1067.28
672.91	1174.95
673.05	964.30
673.19	1109.41
673.33	1036.86
673.47	1086.01
673.61	1036.86
673.75	1034.52
673.89	1029.84
674.03	1062.60
674.17	1074.31
674.31	1029.84
674.45	1078.99
674.59	1111.75
674.73	1076.65
674.87	1081.33
675.01	1046.22
675.15	1046.22
675.29	1001.75
675.43	1067.28
675.56	1064.94
675.70	1074.31
675.84	992.39
675.98	1025.15
676.12	1095.37
676.26	1029.84
676.40	1071.97
676.54	915.15
676.68	983.02
676.82	1104.73
676.96	1006.43
677.10	1039.20
677.23	1036.86
677.37	959.62
677.51	950.26
677.65	1025.15
677.79	968.98
677.93	994.73
678.07	929.19
678.21	924.51
678.34	905.79
678.48	889.40
678.62	938.55
678.76	990.05
678.90	957.28
679.04	1011.11
679.18	873.02
679.31	924.51
679.45	959.62
679.59	842.59
679.73	968.98
679.87	875.36
680.00	908.13
680.14	910.47
680.28	858.98
680.42	858.98
680.56	854.30
680.70	889.40
680.83	847.27
680.97	856.64
681.11	777.06
681.25	901.11
681.39	868.34
681.52	912.81
681.66	875.36
681.80	753.65
681.94	788.76
682.07	835.57
682.21	849.61
682.35	833.23
682.49	798.12
682.62	812.17
682.76	805.14
682.90	746.63
683.04	784.08
683.17	896.43
683.31	779.40
683.45	814.51
683.59	793.44
683.72	812.17
683.86	854.30
684.00	760.67
684.13	688.12
684.27	833.23
684.41	770.04
684.55	809.83
684.68	814.51
684.82	746.63
684.96	739.61
685.09	716.20
685.23	734.93
685.37	709.18
685.50	716.20
685.64	690.46
685.78	791.10
685.91	690.46
686.05	624.92
686.19	667.05
686.32	575.77
686.46	493.85
686.60	454.06
686.73	390.87
686.87	437.68
687.01	334.70
687.14	358.10
687.28	327.68
687.42	381.51
687.55	379.17
687.69	496.19
687.82	517.26
687.96	531.30
688.10	557.05
688.23	500.87
688.37	517.26
688.50	503.22
688.64	524.28
688.78	510.24
688.91	496.19
689.05	414.27
689.18	451.72
689.32	451.72
689.46	528.96
689.59	468.11
689.73	510.24
689.86	437.68
690.00	423.64
690.13	451.72
690.27	486.83
690.41	479.81
690.54	447.04
690.68	550.03
690.81	486.83
690.95	486.83
691.08	566.41
691.22	517.26
691.35	524.28
691.49	486.83
691.62	500.87
691.76	500.87
691.89	465.77
692.03	470.45
692.16	461.09
692.30	442.36
692.43	550.03
692.57	468.11
692.70	472.79
692.84	451.72
692.97	414.27
693.11	465.77
693.24	433.00
693.38	468.11
693.51	475.13
693.65	500.87
693.78	339.38
693.92	519.60
694.05	397.89
694.19	402.57
694.32	362.78
694.45	425.98
694.59	376.83
694.72	440.02
694.86	393.21
694.99	402.57
695.13	418.96
695.26	449.38
695.39	374.49
695.53	465.77
695.66	449.38
695.80	339.38
695.93	390.87
696.07	341.72
696.20	425.98
696.33	379.17
696.47	369.80
696.60	477.47
696.73	449.38
696.87	463.43
697.00	400.23
697.14	454.06
697.27	358.10
697.40	433.00
697.54	397.89
697.67	376.83
697.80	402.57
697.94	374.49
698.07	311.29
698.21	311.29
698.34	287.89
698.47	308.95
698.61	229.37
698.74	397.89
698.87	351.08
699.01	313.63
699.14	290.23
699.27	308.95
699.40	292.57
699.54	332.36
699.67	294.91
699.80	318.31
699.94	304.27
700.07	362.78
700.20	315.97
700.34	248.10
700.47	269.16
700.60	351.08
700.73	287.89
700.87	280.86
701.00	273.84
701.13	259.80
701.26	379.17
701.40	332.36
701.53	241.08
701.66	271.50
701.79	304.27
701.93	264.48
702.06	227.03
702.19	313.63
702.32	269.16
702.46	290.23
702.59	250.44
702.72	266.82
702.85	292.57
702.99	252.78
703.12	311.29
703.25	320.65
703.38	248.10
703.51	287.89
703.65	245.76
703.78	259.80
703.91	184.90
704.04	255.12
704.17	187.24
704.31	320.65
704.44	259.80
704.57	149.79
704.70	194.26
704.83	203.63
704.96	161.50
705.10	187.24
705.23	198.95
>>>>>End Processed Spectral Data<<<<<
