SpectraSuite Data File
++++++++++++++++++++++++++++++++++++
Date: Mon Oct 07 14:53:42 GMT-05:00 2013
User: price-jones
Dark Spectrum Present: No
Reference Spectrum Present: No
Number of Sampled Component Spectra: 1
Spectrometers: USB2+H05261
Integration Time (usec): 100000 (USB2+H05261)
Spectra Averaged: 1 (USB2+H05261)
Boxcar Smoothing: 0 (USB2+H05261)
Correct for Electrical Dark: No (USB2+H05261)
Strobe/Lamp Enabled: No (USB2+H05261)
Correct for Detector Non-linearity: No (USB2+H05261)
Correct for Stray Light: No (USB2+H05261)
Number of Pixels in Processed Spectrum: 2048
>>>>>Begin Processed Spectral Data<<<<<
365.73	0.00
365.92	0.00
366.12	0.00
366.32	0.00
366.52	0.00
366.72	0.00
366.91	0.00
367.11	0.00
367.31	0.00
367.51	0.00
367.70	0.00
367.90	0.00
368.10	0.00
368.30	0.00
368.49	0.00
368.69	0.00
368.89	0.00
369.09	0.00
369.28	0.00
369.48	0.00
369.68	0.00
369.87	0.00
370.07	0.00
370.27	0.00
370.47	720.88
370.66	3667.62
370.86	4348.72
371.06	4568.73
371.25	4564.04
371.45	4264.46
371.65	3817.41
371.84	3574.00
372.04	3885.29
372.24	4098.28
372.44	4404.89
372.63	4191.90
372.83	3950.82
373.03	3653.58
373.22	3258.03
373.42	3463.99
373.62	4091.26
373.81	4381.48
374.01	4273.82
374.21	3934.44
374.40	3691.02
374.60	3763.58
374.79	4297.22
374.99	4882.36
375.19	5284.93
375.38	5291.95
375.58	5055.56
375.78	5032.15
375.97	4961.94
376.17	5249.82
376.37	5163.22
376.56	5397.28
376.76	5516.64
376.95	5977.73
377.15	6258.59
377.35	6642.44
377.54	6736.06
377.74	7131.61
377.93	7276.73
378.13	6848.41
378.33	6675.21
378.52	5830.27
378.72	5830.27
378.91	5928.58
379.11	5598.56
379.31	5533.03
379.50	5343.44
379.70	5724.95
379.89	6368.60
380.09	6703.29
380.28	7143.32
380.48	6977.14
380.68	6815.64
380.87	6740.74
381.07	6235.19
381.26	5874.74
381.46	5362.17
381.65	5130.45
381.85	4954.91
382.04	4854.27
382.24	4493.83
382.43	4360.42
382.63	4140.41
382.83	4208.28
383.02	4353.40
383.22	4266.80
383.41	4299.56
383.61	4484.47
383.80	5193.65
384.00	5949.64
384.19	6693.93
384.39	7007.56
384.58	6953.73
384.78	6890.54
384.97	6829.68
385.17	6422.43
385.36	6040.92
385.56	5724.95
385.75	5994.11
385.95	6586.27
386.14	7117.57
386.34	7204.17
386.53	6897.56
386.72	6361.58
386.92	6384.98
387.11	6679.89
387.31	7171.40
387.50	7063.74
387.70	6881.18
387.89	6839.05
388.09	6892.88
388.28	6778.19
388.48	6963.09
388.67	7459.29
388.86	8102.93
389.06	8706.79
389.25	9149.15
389.45	9174.90
389.64	9177.24
389.84	9142.13
390.03	8950.21
390.22	9062.55
390.42	9282.56
390.61	10001.11
390.81	10576.88
391.00	10686.89
391.19	10555.82
391.39	10272.61
391.58	9797.48
391.78	8999.36
391.97	8762.97
392.16	8149.75
392.36	7714.41
392.55	6237.53
392.75	4896.40
392.94	3997.64
393.13	3854.86
393.33	4596.81
393.52	5834.96
393.71	7239.28
393.91	8133.36
394.10	8718.50
394.29	9610.24
394.49	10319.42
394.68	11393.73
394.88	11466.28
395.07	11613.74
395.26	11449.90
395.46	11545.86
395.65	10611.99
395.84	9186.60
396.04	7850.16
396.23	6553.50
396.42	5352.81
396.62	5132.79
396.81	5991.77
397.00	7555.25
397.19	9404.27
397.39	11377.34
397.58	12678.68
397.77	13659.37
397.97	14218.75
398.16	14387.27
398.35	14579.20
398.55	14958.36
398.74	15882.88
398.93	16126.29
399.12	15761.17
399.32	15363.28
399.51	15648.82
399.70	16828.45
399.90	16458.65
400.09	16678.66
400.28	16315.87
400.47	16280.77
400.67	17556.36
400.86	17827.86
401.05	17561.04
401.24	17907.44
401.44	18207.03
401.63	18134.47
401.82	18398.95
402.01	18249.16
402.21	18389.59
402.40	18700.88
402.59	18174.26
402.78	17121.02
402.97	16580.36
403.17	17525.93
403.36	18326.39
403.55	19119.84
403.74	19414.74
403.93	18389.59
404.13	17291.88
404.32	16634.19
404.51	17390.18
404.70	18757.05
404.89	18902.17
405.09	18647.05
405.28	18125.11
405.47	17914.46
405.66	18036.17
405.85	17418.27
406.05	17074.21
406.24	17348.05
406.43	17947.23
406.62	18675.13
406.81	18927.91
407.00	18148.51
407.20	17589.13
407.39	17972.97
407.58	18384.91
407.77	19318.78
407.96	20091.16
408.15	20402.45
408.34	20278.40
408.54	21158.44
408.73	21160.78
408.92	21116.31
409.11	20643.52
409.30	19665.18
409.49	18288.95
409.68	17034.42
409.87	16528.86
410.07	17551.68
410.26	19035.58
410.45	20257.34
410.64	20973.54
410.83	21371.43
411.02	22008.06
411.21	22780.43
411.40	22232.75
411.59	22546.38
411.78	22335.73
411.98	22464.46
412.17	22719.58
412.36	22199.98
412.55	21937.84
412.74	21713.15
412.93	21518.89
413.12	21439.31
413.31	23147.90
413.50	23201.73
413.69	24039.64
413.88	23002.78
414.07	22384.88
414.26	23014.49
414.45	23695.58
414.64	23414.72
414.83	23929.64
415.02	23136.20
415.22	23367.91
415.41	24030.28
415.60	24446.90
415.79	26024.42
415.98	26171.87
416.17	26403.58
416.36	25575.03
416.55	25132.67
416.74	24222.20
416.93	23400.68
417.12	23789.20
417.31	23627.71
417.50	24444.56
417.69	24751.17
417.88	24886.92
418.07	24685.63
418.26	24294.76
418.45	24376.68
418.64	25359.70
418.83	26314.64
419.02	25933.14
419.21	25827.81
419.39	24496.05
419.58	23552.81
419.77	23302.37
419.96	24500.73
420.15	25713.13
420.34	26525.29
420.53	27573.85
420.72	27892.16
420.91	27913.23
421.10	27304.69
421.29	27405.33
421.48	26368.48
421.67	27480.23
421.86	26876.37
422.05	25214.59
422.24	22422.33
422.43	22415.31
422.61	24538.18
422.80	26733.60
422.99	26815.52
423.18	25993.99
423.37	25191.19
423.56	25266.08
423.75	25797.38
423.94	26167.19
424.13	25060.12
424.32	25212.25
424.50	25008.62
424.69	24659.88
424.88	24858.83
425.07	24657.54
425.26	24910.32
425.45	24372.00
425.64	24060.71
425.83	23997.51
426.01	25827.81
426.20	26333.37
426.39	26029.10
426.58	24053.69
426.77	22293.60
426.96	21680.38
427.15	22448.08
427.33	24294.76
427.52	25041.39
427.71	25294.17
427.90	24816.70
428.09	24922.02
428.28	24194.12
428.46	23166.62
428.65	22803.84
428.84	23520.04
429.03	23896.87
429.22	22916.19
429.40	21207.59
429.59	19442.83
429.78	17238.05
429.97	17481.46
430.16	17446.35
430.34	17429.97
430.53	17692.11
430.72	17965.95
430.91	19749.44
431.10	23248.54
431.28	27742.37
431.47	29783.32
431.66	29970.56
431.85	27351.50
432.03	25249.70
432.22	24245.61
432.41	25228.63
432.60	27517.68
432.79	28776.89
432.97	29748.21
433.16	29081.16
433.35	26408.26
433.54	24053.69
433.72	22546.38
433.91	23005.13
434.10	25369.07
434.28	27400.65
434.47	29071.79
434.66	28868.17
434.85	27772.80
435.03	27658.11
435.22	28411.76
435.41	29680.33
435.59	29937.79
435.78	30808.47
435.97	30998.06
436.16	31384.24
436.34	30932.52
436.53	30281.85
436.72	30473.78
436.90	28795.61
437.09	28914.98
437.28	27974.08
437.46	29322.23
437.65	29261.38
437.84	27424.06
438.02	25123.31
438.21	24463.28
438.40	26047.82
438.58	28254.95
438.77	29333.93
438.96	29432.24
439.14	30551.01
439.33	31442.76
439.52	32196.41
439.70	31257.85
439.89	30384.83
440.08	29888.64
440.26	29757.57
440.45	30448.03
440.63	32540.47
440.82	34110.97
441.01	33694.35
441.19	33467.32
441.38	34047.77
441.57	35264.85
441.75	35807.86
441.94	35887.43
442.12	36140.21
442.31	36610.66
442.50	36421.08
442.68	35807.86
442.87	35384.22
443.05	34787.38
443.24	35243.79
443.43	36060.63
443.61	36947.70
443.80	37361.97
443.98	35098.67
444.17	34998.03
444.35	36985.15
444.54	37638.15
444.73	37031.96
444.91	35475.50
445.10	34684.40
445.28	33027.30
445.47	32411.74
445.65	32591.96
445.84	33979.90
446.02	34834.19
446.21	35452.09
446.39	35431.03
446.58	35646.36
446.77	36704.28
446.95	36835.35
447.14	37848.80
447.32	38022.00
447.51	37387.72
447.69	36123.83
447.88	35515.29
448.06	36353.20
448.25	36964.08
448.43	37123.24
448.62	36854.08
448.80	36224.47
448.99	36727.69
449.17	36921.95
449.36	36875.14
449.54	38328.61
449.73	38490.11
449.91	39643.99
450.10	40208.06
450.28	41067.04
450.46	40774.47
450.65	40512.33
450.83	40407.01
451.02	39318.66
451.20	39321.00
451.39	39164.18
451.57	38752.25
451.76	39026.09
451.94	38576.71
452.13	38480.75
452.31	36514.70
452.49	34787.38
452.68	34906.75
452.86	35285.92
453.05	35608.91
453.23	36837.69
453.42	37371.33
453.60	38609.48
453.78	38981.62
453.97	38316.91
454.15	38422.23
454.34	37750.50
454.52	37872.21
454.70	37043.66
454.89	37769.22
455.07	37607.73
455.26	37993.92
455.44	39360.79
455.62	39924.86
455.81	40388.28
455.99	40100.40
456.17	39627.61
456.36	39817.19
456.54	40727.66
456.73	40657.45
456.91	41525.78
457.09	41607.70
457.28	42333.27
457.46	40840.01
457.64	40538.08
457.83	39019.07
458.01	38515.86
458.19	39452.07
458.38	39454.41
458.56	41312.80
458.74	40701.92
458.93	40423.39
459.11	40046.57
459.29	39660.38
459.48	39962.31
459.66	39653.36
459.84	40135.51
460.03	40870.43
460.21	40769.79
460.39	41375.99
460.57	41556.21
460.76	42050.06
460.94	42466.68
461.12	41387.69
461.31	41839.42
461.49	41565.57
461.67	41572.60
461.85	43117.35
462.04	42794.36
462.22	42731.16
462.40	43014.37
462.59	42431.57
462.77	42581.37
462.95	42817.76
463.13	41956.44
463.32	42270.08
463.50	41542.17
463.68	41834.74
463.86	41834.74
464.05	41354.93
464.23	40495.95
464.41	39826.56
464.59	39622.93
464.78	41673.24
464.96	41251.94
465.14	41130.23
465.32	42377.74
465.50	43234.38
465.69	43175.86
465.87	42398.80
466.05	41436.84
466.23	39517.60
466.41	38995.67
466.60	39793.79
466.78	39796.13
466.96	40638.72
467.14	40765.11
467.32	41937.72
467.51	41682.60
467.69	40051.25
467.87	40769.79
468.05	41209.81
468.23	40905.54
468.41	41612.38
468.60	41481.31
468.78	41874.52
468.96	41015.55
469.14	42424.55
469.32	42525.19
469.50	40505.31
469.69	40774.47
469.87	40336.79
470.05	40142.53
470.23	40147.21
470.41	40680.85
470.59	41092.79
470.77	41104.49
470.95	41970.49
471.14	42429.23
471.32	42555.62
471.50	44439.75
471.68	44643.38
471.86	44996.80
472.04	45626.40
472.22	45490.65
472.40	43360.76
472.58	42696.05
472.77	42445.62
472.95	43473.11
473.13	44479.54
473.31	43140.75
473.49	43077.56
473.67	43952.92
473.85	43948.24
474.03	45469.59
474.21	45284.68
474.39	46178.77
474.57	46164.73
474.75	46316.86
474.93	45741.09
475.12	44734.66
475.30	44839.98
475.48	45399.37
475.66	45687.26
475.84	45284.68
476.02	44996.80
476.20	44250.17
476.38	45052.97
476.56	46017.27
476.74	47063.49
476.92	46864.55
477.10	47508.19
477.28	48657.40
477.46	48980.39
477.64	49359.56
477.82	49317.43
478.00	49380.62
478.18	48903.15
478.36	48704.21
478.54	48666.76
478.72	48987.41
478.90	49691.91
479.08	50567.27
479.26	50993.25
479.44	51037.72
479.62	50766.22
479.80	50642.17
479.98	51145.39
480.16	51398.16
480.34	50869.20
480.52	51182.84
480.70	51604.13
480.88	51267.09
481.06	52369.49
481.24	52299.27
481.41	53294.00
481.59	53661.46
481.77	53282.30
481.95	53109.10
482.13	52835.25
482.31	52713.55
482.49	53399.32
482.67	53062.29
482.85	53471.88
483.03	53799.55
483.21	54241.92
483.39	53928.28
483.57	53764.45
483.74	53125.48
483.92	53750.40
484.10	53717.64
484.28	54745.13
484.46	54562.57
484.64	55028.34
484.82	54284.04
485.00	53881.47
485.18	53537.41
485.35	52516.94
485.53	50171.72
485.71	46693.69
485.89	45483.63
486.07	47517.56
486.25	50742.81
486.43	52418.64
486.61	53382.94
486.78	53162.93
486.96	53272.93
487.14	54635.13
487.32	55213.24
487.50	56081.58
487.68	56488.83
487.85	57090.35
488.03	57097.37
488.21	56870.34
488.39	55924.76
488.57	55758.58
488.75	55388.78
488.92	56104.98
489.10	57860.38
489.28	58866.81
489.46	59554.93
489.64	59334.92
489.81	59482.37
489.99	59337.26
490.17	59147.68
490.35	59463.65
490.53	59288.11
490.70	58894.90
490.88	58805.96
491.06	59585.36
491.24	59517.48
491.41	58845.75
491.59	57387.60
491.77	56769.69
491.95	57539.73
492.13	58693.61
492.30	59538.55
492.48	60439.65
492.66	60673.71
492.84	60825.84
493.01	60587.11
493.19	60142.41
493.37	59957.50
493.54	59550.25
493.72	59901.33
493.90	60973.30
494.08	61778.44
494.25	61916.53
494.43	62017.17
494.61	62276.97
494.79	62443.15
494.96	62211.44
495.14	61563.11
495.32	60874.99
495.49	60406.89
495.67	61249.48
495.85	62099.09
496.02	62700.61
496.20	62501.67
496.38	62225.48
496.55	62108.46
496.73	62581.24
496.91	62553.16
497.09	63210.85
497.26	63203.83
497.44	62691.25
497.62	62361.23
497.79	61872.06
497.97	60640.94
498.14	60741.58
498.32	61719.93
498.50	62323.78
498.67	63271.70
498.85	63016.58
499.03	62948.71
499.20	63217.87
499.38	63278.72
499.56	63025.95
499.73	62735.72
499.91	62391.66
500.08	61886.10
500.26	61247.14
500.44	61776.10
500.61	62321.44
500.79	62211.44
500.97	61872.06
501.14	61762.06
501.32	61544.39
501.49	61584.18
501.67	61935.26
501.84	62232.50
502.02	62321.44
502.20	62852.75
502.37	62955.73
502.55	62869.13
502.72	63215.53
502.90	63774.92
503.07	63444.90
503.25	63222.55
503.43	62560.18
503.60	61827.59
503.78	61389.91
503.95	61705.88
504.13	62871.47
504.30	63587.67
504.48	63367.66
504.65	63032.97
504.83	63114.89
505.01	63702.36
505.18	63920.03
505.36	64439.63
505.53	64484.10
505.71	64830.50
505.88	64851.56
506.06	64250.05
506.23	64062.80
506.41	63590.01
506.58	63786.62
506.76	63781.94
506.93	63873.22
507.11	63559.59
507.28	63697.68
507.46	63297.45
507.63	62780.19
507.81	62649.12
507.98	62810.62
508.16	63456.60
508.33	63934.07
508.50	64231.32
508.68	64509.85
508.85	64935.82
509.03	64774.33
509.20	64884.33
509.38	64156.42
509.55	63482.35
509.73	63449.58
509.90	64018.33
510.08	64280.47
510.25	64210.26
510.42	64121.32
510.60	64013.65
510.77	64205.58
510.95	64650.28
511.12	64683.04
511.30	65123.07
511.47	65453.08
511.64	65338.40
511.82	64903.06
511.99	64315.58
512.17	63810.03
512.34	63578.31
512.51	63807.68
512.69	63889.60
512.86	63795.98
513.04	64271.11
513.21	64259.41
513.38	64065.14
513.56	63550.23
513.73	63107.86
513.90	63295.11
514.08	63325.53
514.25	63716.40
514.43	63653.21
514.60	63746.83
514.77	64135.36
514.95	64081.53
515.12	63969.18
515.29	64203.24
515.47	64479.42
515.64	64842.20
515.81	64451.33
515.99	64004.29
516.16	62768.49
516.33	60699.45
516.51	59580.68
516.68	59032.99
516.85	58733.40
517.03	58812.98
517.20	60905.42
517.37	63159.36
517.54	64023.01
517.72	63625.12
517.89	61876.74
518.06	59540.89
518.24	59653.23
518.41	61659.07
518.58	62651.46
518.75	63196.80
518.93	63096.16
519.10	63014.24
519.27	63519.80
519.45	63674.27
519.62	64240.68
519.79	64556.66
519.96	64374.09
520.14	64037.06
520.31	63316.17
520.48	63510.44
520.65	63498.73
520.83	64512.19
521.00	64757.94
521.17	64479.42
521.34	64030.04
521.52	64395.16
521.69	64769.64
521.86	65230.73
522.03	64935.82
522.20	63870.88
522.38	62955.73
522.55	63030.63
522.72	63449.58
522.89	63676.61
523.07	63795.98
523.24	64081.53
523.41	64886.67
523.58	65102.00
523.75	65535.00
523.92	65396.91
524.10	65293.92
524.27	65270.52
524.44	65146.47
524.61	65123.07
524.78	64910.08
524.96	64741.56
525.13	64755.60
525.30	64889.01
525.47	65464.78
525.64	65235.41
525.81	64673.68
525.98	63655.55
526.16	62192.72
526.33	61703.54
526.50	61478.85
526.67	61029.47
526.84	61567.79
527.01	62480.60
527.18	63091.48
527.36	63749.17
527.53	64577.72
527.70	64947.53
527.87	64334.31
528.04	63812.37
528.21	64402.18
528.38	64903.06
528.55	65535.00
528.72	65535.00
528.89	65535.00
529.07	65535.00
529.24	65174.56
529.41	64568.36
529.58	63987.91
529.75	64048.76
529.92	64420.90
530.09	64830.50
530.26	65284.56
530.43	65535.00
530.60	65525.64
530.77	65535.00
530.94	65535.00
531.11	65310.31
531.28	64942.84
531.46	65010.72
531.63	65087.96
531.80	64921.78
531.97	64451.33
532.14	63810.03
532.31	63086.80
532.48	62464.22
532.65	62518.05
532.82	63194.46
532.99	64292.18
533.16	64448.99
533.33	65097.32
533.50	64722.83
533.67	64441.97
533.84	63805.34
534.01	64219.62
534.18	64303.88
534.35	64406.86
534.52	64338.99
534.69	64463.03
534.86	64914.76
535.03	65052.85
535.20	65392.23
535.37	65535.00
535.54	65535.00
535.71	65535.00
535.88	65282.22
536.05	64701.77
536.22	64481.76
536.38	64083.87
536.55	63700.02
536.72	63173.40
536.89	63051.69
537.06	63896.62
537.23	64446.65
537.40	64729.86
537.57	64825.82
537.74	64573.04
537.91	64465.38
538.08	64355.37
538.25	64502.82
538.42	64767.30
538.59	64671.34
538.75	64001.95
538.92	63774.92
539.09	63636.83
539.26	63470.65
539.43	63332.56
539.60	63470.65
539.77	63655.55
539.94	63618.10
540.11	62782.53
540.28	62333.15
540.44	62466.56
540.61	62511.03
540.78	62773.17
540.95	63407.45
541.12	63437.88
541.29	63781.94
541.46	64203.24
541.62	64074.51
541.79	64006.63
541.96	63484.69
542.13	63372.34
542.30	63749.17
542.47	63990.25
542.63	63552.57
542.80	63442.56
542.97	63501.07
543.14	63353.62
543.31	63444.90
543.48	64025.35
543.64	64678.36
543.81	64856.24
543.98	64753.26
544.15	64023.01
544.32	63732.79
544.48	63505.76
544.65	64095.57
544.82	64481.76
544.99	63962.16
545.16	63693.00
545.32	63475.33
545.49	64268.77
545.66	64395.16
545.83	64133.02
546.00	63938.75
546.16	63552.57
546.33	63749.17
546.50	63730.45
546.67	64193.87
546.83	63845.13
547.00	63709.38
547.17	63103.18
547.34	62677.21
547.50	62578.90
547.67	63131.27
547.84	63138.29
548.00	63454.26
548.17	63824.07
548.34	63795.98
548.51	63859.18
548.67	63557.25
548.84	63807.68
549.01	63714.06
549.18	63681.30
549.34	63592.36
549.51	63676.61
549.68	63423.84
549.84	63278.72
550.01	63295.11
550.18	62986.16
550.34	63276.38
550.51	63217.87
550.68	63414.47
550.84	62801.25
551.01	62822.32
551.18	63032.97
551.34	63028.29
551.51	63582.99
551.68	63678.96
551.84	63786.62
552.01	63547.89
552.18	63552.57
552.34	62845.72
552.51	62216.12
552.68	62300.38
552.84	63091.48
553.01	62981.48
553.18	62817.64
553.34	63051.69
553.51	63114.89
553.67	63496.39
553.84	63428.52
554.01	63149.99
554.17	63206.17
554.34	63063.39
554.51	63281.06
554.67	63594.70
554.84	63545.54
555.00	63084.46
555.17	63061.05
555.33	62899.56
555.50	62981.48
555.67	62953.39
555.83	62805.94
556.00	62564.86
556.16	62480.60
556.33	62134.20
556.50	62124.84
556.66	62218.46
556.83	61904.83
556.99	62031.22
557.16	62213.78
557.32	62398.68
557.49	62630.40
557.65	62632.74
557.82	62534.43
557.98	62302.72
558.15	62040.58
558.32	61247.14
558.48	60381.14
558.65	60659.66
558.81	61134.79
558.98	61471.83
559.14	61656.73
559.31	61408.64
559.47	61595.88
559.64	61300.97
559.80	61162.88
559.97	60889.04
560.13	61546.73
560.30	62202.08
560.46	62606.99
560.63	62679.55
560.79	62864.45
560.96	62485.28
561.12	61478.85
561.29	60786.05
561.45	60853.93
561.61	61216.71
561.78	61764.40
561.94	61703.54
562.11	61565.45
562.27	61319.70
562.44	61535.02
562.60	61918.87
562.77	62197.40
562.93	61951.64
563.10	61893.13
563.26	61408.64
563.42	61497.58
563.59	61137.13
563.75	61212.03
563.92	61315.01
564.08	61190.97
564.24	61361.82
564.41	61490.55
564.57	61495.24
564.74	61275.22
564.90	61146.50
565.07	61006.06
565.23	60917.12
565.39	60411.57
565.56	60210.28
565.72	60032.40
565.88	60224.32
566.05	60439.65
566.21	60603.49
566.38	60533.28
566.54	60734.56
566.70	60919.46
566.87	61399.27
567.03	61169.90
567.19	61600.56
567.36	61237.78
567.52	60970.96
567.68	60910.10
567.85	60416.25
568.01	60140.07
568.17	59852.18
568.34	59683.66
568.50	59620.47
568.66	59840.48
568.83	60126.02
568.99	60079.21
569.15	60324.97
569.32	60605.83
569.48	60158.79
569.64	59997.29
569.81	59629.83
569.97	59660.26
570.13	59653.23
570.30	59072.78
570.46	59025.97
570.62	58541.48
570.78	58429.13
570.95	58656.17
571.11	59318.54
571.27	59178.10
571.43	59419.18
571.60	59606.42
571.76	60053.47
571.92	60067.51
572.09	60193.90
572.25	60292.20
572.41	60175.17
572.57	59994.95
572.74	60027.72
572.90	59735.15
573.06	59636.85
573.22	59908.35
573.38	59992.61
573.55	59767.92
573.71	59807.71
573.87	59678.98
574.03	59707.07
574.20	59606.42
574.36	59304.49
574.52	59274.07
574.68	59117.25
574.84	58831.71
575.01	58590.63
575.17	58379.98
575.33	58651.48
575.49	58808.30
575.65	58932.35
575.82	58752.13
575.98	58688.93
576.14	59023.63
576.30	58983.84
576.46	58972.14
576.62	58906.60
576.79	59018.95
576.95	58859.79
577.11	58735.74
577.27	58742.77
577.43	58866.81
577.59	58482.97
577.75	58059.33
577.92	57542.07
578.08	57308.02
578.24	57502.28
578.40	57897.83
578.56	58056.99
578.72	57862.72
578.88	58164.65
579.04	58389.34
579.21	58408.07
579.37	58571.91
579.53	58588.29
579.69	58450.20
579.85	58702.98
580.01	58644.46
580.17	57939.96
580.33	57916.56
580.49	58164.65
580.65	58342.53
580.82	58459.56
580.98	58487.65
581.14	58506.37
581.30	58501.69
581.46	58244.23
581.62	58513.39
581.78	58323.81
581.94	58445.52
582.10	58548.50
582.26	58595.31
582.42	58534.46
582.58	58651.48
582.74	58450.20
582.90	58485.31
583.06	58649.14
583.22	58438.50
583.38	58300.40
583.54	58216.14
583.70	58092.10
583.86	58436.16
584.02	58094.44
584.18	58314.45
584.34	58127.20
584.50	58049.97
584.66	58129.54
584.82	58035.92
584.98	57752.72
585.14	57429.72
585.30	56926.51
585.46	56587.13
585.62	56488.83
585.78	56954.60
585.94	56786.08
586.10	57095.03
586.26	57186.31
586.42	57432.07
586.58	57668.46
586.74	57628.67
586.90	57539.73
587.06	57380.57
587.22	57453.13
587.38	57214.40
587.54	56863.32
587.70	56891.40
587.86	56512.23
588.02	56327.33
588.18	56200.94
588.34	55185.15
588.49	54040.63
588.65	51863.93
588.81	51526.89
588.97	51910.74
589.13	51913.08
589.29	51847.55
589.45	52566.09
589.61	53731.68
589.77	54403.41
589.93	55028.34
590.08	55749.22
590.24	55966.89
590.40	56002.00
590.56	55913.06
590.72	55861.57
590.88	55477.72
591.04	55330.26
591.20	55131.32
591.35	55065.78
591.51	55477.72
591.67	55241.32
591.83	55557.30
591.99	55557.30
592.15	55466.02
592.31	55613.47
592.46	55566.66
592.62	55140.68
592.78	55100.89
592.94	54997.91
593.10	55147.70
593.26	55412.18
593.41	55791.35
593.57	55381.76
593.73	55044.72
593.89	55049.40
594.05	54749.81
594.20	54335.54
594.36	54183.40
594.52	54206.81
594.68	53984.46
594.84	54307.45
594.99	54609.38
595.15	54857.48
595.31	54703.00
595.47	54892.58
595.62	54768.54
595.78	55133.66
595.94	55496.44
596.10	55161.75
596.25	55051.74
596.41	54885.56
596.57	54394.05
596.73	54859.82
596.88	54822.37
597.04	54752.15
597.20	54492.35
597.36	54080.42
597.51	54541.50
597.67	54307.45
597.83	54321.49
597.99	54237.23
598.14	53776.15
598.30	53764.45
598.46	53600.61
598.61	54085.10
598.77	54284.04
598.93	54260.64
599.09	54478.31
599.24	54473.63
599.40	54246.60
599.56	54106.16
599.71	54164.68
599.87	54169.36
600.03	53991.48
600.18	53680.19
600.34	53628.69
600.50	53319.74
600.65	53413.37
600.81	53375.92
600.97	53600.61
601.12	53429.75
601.28	53315.06
601.44	53202.72
601.59	53088.03
601.75	52891.43
601.91	53043.56
602.06	52580.13
602.22	52973.34
602.37	52832.91
602.53	53216.76
602.69	53551.46
602.84	53581.88
603.00	53851.05
603.16	53986.80
603.31	53972.75
603.47	53621.67
603.62	53593.59
603.78	53455.50
603.94	53483.58
604.09	53668.48
604.25	53146.54
604.40	53352.51
604.56	53205.06
604.71	53539.75
604.87	53418.05
605.03	53083.35
605.18	52884.40
605.34	53151.23
605.49	52987.39
605.65	53073.99
605.80	52898.45
605.96	52521.62
606.12	52093.30
606.27	52458.43
606.43	52273.52
606.58	52865.68
606.74	52657.37
606.89	52814.19
607.05	53146.54
607.20	53001.43
607.36	52680.78
607.51	52198.63
607.67	52072.24
607.82	51948.19
607.98	51814.78
608.13	51625.20
608.29	51695.41
608.44	51405.19
608.60	51325.61
608.75	51398.16
608.91	51267.09
609.06	51529.23
609.22	51672.01
609.37	51620.52
609.53	51952.87
609.68	51154.75
609.84	50370.67
609.99	50251.30
610.15	50616.43
610.30	50841.12
610.46	50934.74
610.61	51246.03
610.76	51767.97
610.92	51519.87
611.07	51707.12
611.23	51725.84
611.38	51636.90
611.54	51255.39
611.69	50560.25
611.84	49914.26
612.00	50050.02
612.15	50106.19
612.31	50253.64
612.46	49830.01
612.62	50394.07
612.77	50398.76
612.92	50766.22
613.08	49961.08
613.23	49045.93
613.39	48212.70
613.54	48364.83
613.69	49038.90
613.85	48823.58
614.00	48989.75
614.15	49792.56
614.31	49041.24
614.46	49343.17
614.62	49570.21
614.77	49542.12
614.92	49677.87
615.08	49647.44
615.23	49483.61
615.38	49350.20
615.54	48655.06
615.69	47868.64
615.84	46487.72
616.00	46366.01
616.15	47033.07
616.30	47201.58
616.46	47206.26
616.61	47054.13
616.76	47360.74
616.92	47786.72
617.07	47728.20
617.22	47786.72
617.37	48287.59
617.53	48612.93
617.68	48811.87
617.83	48275.89
617.99	48514.62
618.14	48605.91
618.29	48786.13
618.45	47817.14
618.60	47445.00
618.75	47185.20
618.90	47002.64
619.06	47313.93
619.21	47938.85
619.36	48320.36
619.51	47782.04
619.67	47648.63
619.82	48027.79
619.97	48088.65
620.12	47641.60
620.28	47304.57
620.43	48069.92
620.58	47861.61
620.73	47854.59
620.89	47161.79
621.04	47079.88
621.19	46909.02
621.34	46326.22
621.49	46506.44
621.65	46190.47
621.80	46642.20
621.95	46447.93
622.10	46497.08
622.25	46330.90
622.41	46256.01
622.56	45982.16
622.71	45394.69
622.86	44769.77
623.01	45446.18
623.16	45532.78
623.32	45469.59
623.47	45680.24
623.62	45329.16
623.77	45350.22
623.92	44800.19
624.07	44154.21
624.23	43569.07
624.38	43826.53
624.53	43938.88
624.68	44083.99
624.83	43849.94
624.98	43852.28
625.13	43100.97
625.29	43482.47
625.44	43725.89
625.59	43253.10
625.74	43938.88
625.89	44067.61
626.04	44013.77
626.19	43866.32
626.34	44217.40
626.49	43753.97
626.65	43728.23
626.80	43971.64
626.95	43868.66
627.10	43463.75
627.25	42689.03
627.40	41752.82
627.55	41305.77
627.70	40601.27
627.85	40889.16
628.00	41230.88
628.15	42026.66
628.30	41949.42
628.45	42438.59
628.60	42181.13
628.76	42007.94
628.91	41933.04
629.06	41755.16
629.21	41862.82
629.36	41591.32
629.51	41003.85
629.66	40666.81
629.81	40690.21
629.96	40414.03
630.11	41010.87
630.26	41193.43
630.41	41787.92
630.56	40945.33
630.71	41493.02
630.86	41549.19
631.01	40940.65
631.16	40423.39
631.31	40250.19
631.46	39599.52
631.61	39910.82
631.76	40226.79
631.91	40928.95
632.06	40708.94
632.21	41081.08
632.36	41514.08
632.51	40828.30
632.66	41205.13
632.81	40992.14
632.96	41104.49
633.10	40643.40
633.25	40247.85
633.40	40002.10
633.55	40306.37
633.70	40409.35
633.85	40327.43
634.00	40105.08
634.15	40252.53
634.30	40133.17
634.45	40395.31
634.60	40528.72
634.75	40919.59
634.90	40758.09
635.05	40191.68
635.19	40027.84
635.34	39922.52
635.49	39866.34
635.64	39885.07
635.79	39086.95
635.94	38803.74
636.09	39363.13
636.24	39225.04
636.39	39559.73
636.53	39580.80
636.68	39393.56
636.83	39686.12
636.98	40055.93
637.13	39789.11
637.28	40009.12
637.43	40273.60
637.57	39599.52
637.72	39255.46
637.87	39393.56
638.02	39693.15
638.17	39515.26
638.32	39386.54
638.46	39360.79
638.61	39620.59
638.76	39021.41
638.91	38651.61
639.06	38452.66
639.20	38780.34
639.35	37764.54
639.50	38026.68
639.65	38099.24
639.80	37963.49
639.94	38370.74
640.09	38003.28
640.24	38216.27
640.39	37837.10
640.54	37364.31
640.68	37415.80
640.83	37287.07
640.98	37067.06
641.13	36690.24
641.27	37212.18
641.42	36992.17
641.57	36903.23
641.72	36659.81
641.86	36788.54
642.01	37280.05
642.16	37844.12
642.31	36999.19
642.45	38103.92
642.60	37481.34
642.75	36903.23
642.90	36744.07
643.04	36594.28
643.19	36692.58
643.34	36470.23
643.48	36458.52
643.63	36112.13
643.78	36545.12
643.93	36648.11
644.07	36947.70
644.22	36842.37
644.37	37071.75
644.51	36093.40
644.66	36498.31
644.81	36224.47
644.95	35880.41
645.10	35896.80
645.25	35440.39
645.39	34913.77
645.54	35391.24
645.69	35175.91
645.83	35028.46
645.98	34422.26
646.13	34618.86
646.27	35159.53
646.42	34728.87
646.57	34810.79
646.71	34717.17
646.86	34665.67
647.00	34005.64
647.15	33900.32
647.30	33553.92
647.44	33963.51
647.59	33989.26
647.74	33111.56
647.88	33347.95
648.03	33228.59
648.17	33670.95
648.32	34010.32
648.47	34209.27
648.61	33792.65
648.76	33701.37
648.90	32652.81
649.05	32070.02
649.20	31468.50
649.34	31274.24
649.49	31627.66
649.63	32283.01
649.78	33205.18
649.92	33097.52
650.07	33457.96
650.21	34040.75
650.36	33998.62
650.51	34005.64
650.65	34174.16
650.80	34272.46
650.94	33432.21
651.09	33088.15
651.23	32814.31
651.38	31950.65
651.52	31693.19
651.67	32109.81
651.81	32744.09
651.96	32907.93
652.10	32704.31
652.25	32479.61
652.39	32652.81
652.54	32905.59
652.68	32971.13
652.83	32598.98
652.97	32999.21
653.12	32531.11
653.26	32570.90
653.41	32945.38
653.55	33024.96
653.70	32940.70
653.84	32367.27
653.99	32390.67
654.13	31627.66
654.27	31360.84
654.42	31056.57
654.56	31442.76
654.71	31140.83
654.85	30679.74
655.00	30799.11
655.14	30389.52
655.29	29577.35
655.43	29633.52
655.57	28233.88
655.72	26352.09
655.86	24575.62
656.01	22871.72
656.15	23208.75
656.30	24627.12
656.44	26087.61
656.58	27271.92
656.73	28233.88
656.87	28699.65
657.01	28905.62
657.16	29259.04
657.30	29757.57
657.45	30384.83
657.59	30375.47
657.73	30295.89
657.88	30511.22
658.02	30621.23
658.16	30721.87
658.31	30403.56
658.45	30534.63
658.60	30307.60
658.74	29965.88
658.88	29743.53
659.03	29628.84
659.17	29120.95
659.31	29797.36
659.46	29294.14
659.60	29998.65
659.74	30504.20
659.89	30026.73
660.03	30443.35
660.17	30740.60
660.32	30256.11
660.46	29766.93
660.60	29874.60
660.74	29638.20
660.89	29764.59
661.03	29898.00
661.17	29902.68
661.32	29649.91
661.46	29703.74
661.60	29670.97
661.74	29727.14
661.89	29741.19
662.03	29621.82
662.17	29530.54
662.31	29661.61
662.46	29780.98
662.60	29205.20
662.74	28936.04
662.88	28929.02
663.03	28491.34
663.17	28554.54
663.31	27775.14
663.45	28428.15
663.60	28367.29
663.74	28507.72
663.88	28421.13
664.02	28168.35
664.17	28156.64
664.31	28105.15
664.45	28481.98
664.59	28222.18
664.73	28545.17
664.88	28465.60
665.02	28610.71
665.16	28444.53
665.30	28079.41
665.44	28147.28
665.59	27592.58
665.73	27960.04
665.87	27253.20
666.01	27044.89
666.15	26972.33
666.29	26937.23
666.44	27054.25
666.58	27147.87
666.72	27173.62
666.86	27391.29
667.00	27775.14
667.14	27592.58
667.28	26885.73
667.43	27037.87
667.57	26792.11
667.71	26616.57
667.85	26857.65
667.99	26757.00
668.13	26544.02
668.27	26354.43
668.41	26492.52
668.56	26611.89
668.70	27061.27
668.84	26651.68
668.98	26504.23
669.12	26251.45
669.26	26457.42
669.40	26134.42
669.54	25832.49
669.68	26136.76
669.82	25865.26
669.96	25717.81
670.10	25891.01
670.25	25757.60
670.39	25469.71
670.53	25209.91
670.67	25544.61
670.81	25092.88
670.95	25160.76
671.09	25146.72
671.23	25055.43
671.37	24531.15
671.51	24786.27
671.65	24390.72
671.79	24542.86
671.93	24542.86
672.07	25238.00
672.21	24830.74
672.35	24524.13
672.49	24510.09
672.63	24559.24
672.77	24589.67
672.91	24353.27
673.05	24521.79
673.19	24334.55
673.33	24240.93
673.47	24346.25
673.61	23941.34
673.75	23906.23
673.89	23817.29
674.03	23969.43
674.17	23917.93
674.31	23880.49
674.45	23653.45
674.59	23737.71
674.73	23470.89
674.87	23101.09
675.01	22850.65
675.15	23119.81
675.29	23381.95
675.43	23190.03
675.56	23288.33
675.70	23061.30
675.84	22995.76
675.98	22801.50
676.12	23150.24
676.26	22845.97
676.40	22953.63
676.54	22298.28
676.68	22644.68
676.82	21982.31
676.96	22349.78
677.10	22232.75
677.23	22237.43
677.37	22012.74
677.51	22057.21
677.65	22207.00
677.79	21549.31
677.93	21614.85
678.07	21600.80
678.21	21317.60
678.34	21256.75
678.48	20816.72
678.62	21195.89
678.76	21493.14
678.90	21191.21
679.04	20711.40
679.18	21535.27
679.31	21074.18
679.45	20940.77
679.59	20769.91
679.73	20608.42
679.87	20753.53
680.00	20460.96
680.14	20519.48
680.28	20142.65
680.42	20226.91
680.56	20170.74
680.70	20306.49
680.83	19885.19
680.97	19850.08
681.11	20126.27
681.25	19894.55
681.39	19896.89
681.52	20166.06
681.66	19798.59
681.80	19955.41
681.94	19552.84
682.07	19676.88
682.21	19651.14
682.35	19089.41
682.49	19068.34
682.62	18845.99
682.76	18551.09
682.90	18778.12
683.04	19044.94
683.17	18895.14
683.31	18714.92
683.45	18710.24
683.59	18359.16
683.72	18267.88
683.86	18155.54
684.00	17736.58
684.13	17586.79
684.27	17729.56
684.41	18080.64
684.55	18111.07
684.68	17853.61
684.82	17752.96
684.96	17891.06
685.09	17853.61
685.23	17532.95
685.37	17181.87
685.50	17245.07
685.64	17106.98
685.78	16989.95
685.91	17249.75
686.05	16826.11
686.19	16418.86
686.32	15389.02
686.46	14012.79
686.60	12280.79
686.73	11183.08
686.87	10658.80
687.01	10476.24
687.14	10785.19
687.28	11171.38
687.42	11501.39
687.55	11997.59
687.69	13121.04
687.82	13469.78
687.96	13980.02
688.10	13921.51
688.23	13898.10
688.37	13514.25
688.50	13121.04
688.64	13181.90
688.78	12786.35
688.91	12901.03
689.05	12751.24
689.18	12835.50
689.32	12826.14
689.46	12760.60
689.59	13074.23
689.73	12989.97
689.86	13062.53
690.00	13020.40
690.13	13186.58
690.27	12968.91
690.41	13020.40
690.54	13217.01
690.68	13186.58
690.81	13123.38
690.95	13298.92
691.08	13390.20
691.22	13200.62
691.35	13256.79
691.49	13525.96
691.62	13345.73
691.76	13528.30
691.89	13359.78
692.03	13312.97
692.16	12987.63
692.30	12999.34
692.43	13142.11
692.57	12765.28
692.70	12753.58
692.84	12432.93
692.97	12257.39
693.11	12271.43
693.24	12236.32
693.38	12489.10
693.51	12299.52
693.65	12198.87
693.78	11957.80
693.92	12189.51
694.05	11744.81
694.19	12163.76
694.32	11948.43
694.45	11868.86
694.59	11920.35
694.72	11864.18
694.86	12025.67
694.99	11960.14
695.13	11864.18
695.26	11712.04
695.39	11573.95
695.53	11400.75
695.66	11494.37
695.80	11543.52
695.93	11557.57
696.07	11737.79
696.20	11796.30
696.33	12039.72
696.47	11908.65
696.60	11999.93
696.73	11782.26
696.87	11693.32
697.00	11934.39
697.14	11702.68
697.27	11468.62
697.40	11389.05
697.54	11094.14
697.67	11000.52
697.80	11054.35
697.94	10937.32
698.07	10913.92
698.21	10581.56
698.34	10710.29
698.47	10581.56
698.61	10307.72
698.74	10391.98
698.87	10335.81
699.01	10214.10
699.14	10239.84
699.27	10391.98
699.40	10705.61
699.54	10389.64
699.67	10347.51
699.80	10340.49
699.94	9785.78
700.07	10118.14
700.20	9762.37
700.34	9549.39
700.47	9504.92
700.60	9425.34
700.73	9619.60
700.87	9643.01
701.00	9430.02
701.13	9486.19
701.26	9320.01
701.40	9434.70
701.53	9245.12
701.66	9638.33
701.79	9137.45
701.93	9467.47
702.06	9404.27
702.19	9149.15
702.32	9004.04
702.46	9174.90
702.59	9046.17
702.72	8997.02
702.85	8879.99
702.99	9193.62
703.12	9125.75
703.25	9067.24
703.38	9034.47
703.51	9085.96
703.65	8809.78
703.78	8805.10
703.91	8779.35
704.04	8938.51
704.17	8847.22
704.31	8739.56
704.44	8606.15
704.57	8823.82
704.70	8685.73
704.83	8575.72
704.96	8652.96
705.10	8397.84
705.23	8393.16
>>>>>End Processed Spectral Data<<<<<
