SpectraSuite Data File
++++++++++++++++++++++++++++++++++++
Date: Mon Oct 07 14:53:44 GMT-05:00 2013
User: price-jones
Dark Spectrum Present: No
Reference Spectrum Present: No
Number of Sampled Component Spectra: 1
Spectrometers: USB2+H05261
Integration Time (usec): 100000 (USB2+H05261)
Spectra Averaged: 1 (USB2+H05261)
Boxcar Smoothing: 0 (USB2+H05261)
Correct for Electrical Dark: No (USB2+H05261)
Strobe/Lamp Enabled: No (USB2+H05261)
Correct for Detector Non-linearity: No (USB2+H05261)
Correct for Stray Light: No (USB2+H05261)
Number of Pixels in Processed Spectrum: 2048
>>>>>Begin Processed Spectral Data<<<<<
365.73	0.00
365.92	0.00
366.12	0.00
366.32	0.00
366.52	0.00
366.72	0.00
366.91	0.00
367.11	0.00
367.31	0.00
367.51	0.00
367.70	0.00
367.90	0.00
368.10	0.00
368.30	0.00
368.49	0.00
368.69	0.00
368.89	0.00
369.09	0.00
369.28	0.00
369.48	0.00
369.68	0.00
369.87	0.00
370.07	0.00
370.27	0.00
370.47	660.03
370.66	3691.02
370.86	4252.75
371.06	4613.20
371.25	4819.16
371.45	4311.27
371.65	3875.93
371.84	3557.61
372.04	3770.60
372.24	4273.82
372.44	4353.40
372.63	4351.06
372.83	4086.58
373.03	3536.55
373.22	3300.16
373.42	3400.80
373.62	4004.66
373.81	4341.69
374.01	4365.10
374.21	3782.31
374.40	3655.92
374.60	3604.42
374.79	4175.52
374.99	4999.38
375.19	5294.29
375.38	5303.65
375.58	4945.55
375.78	4975.98
375.97	4994.70
376.17	5174.92
376.37	5102.37
376.56	5320.04
376.76	5687.50
376.95	5813.89
377.15	6459.88
377.35	6817.98
377.54	6946.71
377.74	7117.57
377.93	7122.25
378.13	7009.90
378.33	6464.56
378.52	5996.45
378.72	5813.89
378.91	5900.49
379.11	5460.47
379.31	5327.06
379.50	5350.46
379.70	5666.44
379.89	6319.45
380.09	6726.70
380.28	7009.90
380.48	6883.52
380.68	6867.13
380.87	6576.91
381.07	6277.32
381.26	5645.37
381.46	5348.12
381.65	5238.12
381.85	4919.81
382.04	4798.10
382.24	4489.15
382.43	4278.50
382.63	4112.32
382.83	4159.13
383.02	4201.26
383.22	4191.90
383.41	4290.20
383.61	4484.47
383.80	5144.50
384.00	5933.26
384.19	6462.22
384.39	6967.77
384.58	6792.23
384.78	6722.02
384.97	6785.21
385.17	6382.64
385.36	5935.60
385.56	5884.11
385.75	5837.30
385.95	6527.75
386.14	7129.27
386.34	6991.18
386.53	6607.33
386.72	6335.83
386.92	6518.39
387.11	6829.68
387.31	7250.98
387.50	7009.90
387.70	6675.21
387.89	6623.72
388.09	6834.36
388.28	6902.24
388.48	6827.34
388.67	7260.34
388.86	8308.90
389.06	8585.08
389.25	9015.74
389.45	9191.28
389.64	9149.15
389.84	8922.12
390.03	8999.36
390.22	8908.08
390.42	9385.55
390.61	9720.24
390.81	10581.56
391.00	10719.65
391.19	10616.67
391.39	10183.67
391.58	9619.60
391.78	9172.56
391.97	8889.35
392.16	8367.42
392.36	7576.31
392.55	6195.40
392.75	4795.76
392.94	4065.51
393.13	3861.88
393.33	4578.09
393.52	5949.64
393.71	7253.32
393.91	8264.43
394.10	8704.45
394.29	9584.49
394.49	10464.54
394.68	10939.66
394.88	11084.78
395.07	11595.01
395.26	11531.82
395.46	11220.53
395.65	10649.44
395.84	9200.65
396.04	7695.68
396.23	6373.28
396.42	5420.68
396.62	5074.28
396.81	6066.67
397.00	7571.63
397.19	9518.96
397.39	11157.33
397.58	12865.92
397.77	13308.29
397.97	14176.62
398.16	14141.52
398.35	14684.52
398.55	15117.52
398.74	15770.53
398.93	16191.83
399.12	15868.83
399.32	15145.61
399.51	15859.47
399.70	16460.99
399.90	16449.28
400.09	16449.28
400.28	16173.10
400.47	16451.63
400.67	17547.00
400.86	17839.56
401.05	17965.95
401.24	17886.37
401.44	18031.49
401.63	18054.89
401.82	18256.18
402.01	17987.02
402.21	18586.19
402.40	18291.29
402.59	17811.48
402.78	17200.60
402.97	16748.87
403.17	16980.59
403.36	18190.64
403.55	18855.36
403.74	19576.24
403.93	18501.93
404.13	16856.54
404.32	16453.97
404.51	17425.29
404.70	19005.15
404.89	18806.20
405.09	18574.49
405.28	18200.01
405.47	17965.95
405.66	17956.59
405.85	17638.28
406.05	16802.71
406.24	17406.56
406.43	17886.37
406.62	18923.23
406.81	18642.37
407.00	17860.63
407.20	17635.94
407.39	17743.60
407.58	18691.52
407.77	19157.28
407.96	19999.88
408.15	20262.02
408.34	20418.83
408.54	21261.43
408.73	21352.71
408.92	21078.86
409.11	20175.42
409.30	19515.39
409.49	18277.24
409.68	17355.07
409.87	16521.84
410.07	17385.50
410.26	18948.98
410.45	20437.56
410.64	20748.85
410.83	21209.93
411.02	21781.03
411.21	22820.22
411.40	22097.00
411.59	22689.15
411.78	22167.21
411.98	22047.85
412.17	22525.32
412.36	22232.75
412.55	22405.95
412.74	21568.04
412.93	21109.29
413.12	21317.60
413.31	23461.53
413.50	23524.72
413.69	24116.88
413.88	23040.23
414.07	22455.10
414.26	22735.96
414.45	23470.89
414.64	23634.73
414.83	23847.72
415.02	23323.44
415.22	23112.79
415.41	23641.75
415.60	24587.33
415.79	25631.21
415.98	25898.03
416.17	26017.40
416.36	25355.02
416.55	25186.50
416.74	24367.32
416.93	23473.23
417.12	23358.55
417.31	23613.66
417.50	24273.70
417.69	24713.72
417.88	24793.29
418.07	24491.37
418.26	24180.07
418.45	24219.86
418.64	25172.46
418.83	26356.77
419.02	25642.91
419.21	25776.32
419.39	24474.98
419.58	23183.01
419.77	23255.56
419.96	24533.50
420.15	25797.38
420.34	26272.51
420.53	27475.55
420.72	27850.03
420.91	27943.66
421.10	27452.14
421.29	27459.16
421.48	26345.07
421.67	27498.95
421.86	26881.05
422.05	25046.07
422.24	22450.42
422.43	21558.67
422.61	24439.87
422.80	26382.52
422.99	26803.82
423.18	25656.95
423.37	25277.79
423.56	25355.02
423.75	25565.67
423.94	26120.38
424.13	24442.21
424.32	25085.86
424.50	25095.22
424.69	24580.31
424.88	24933.73
425.07	24444.56
425.26	25085.86
425.45	24786.27
425.64	24231.57
425.83	23728.35
426.01	25502.48
426.20	26015.05
426.39	25769.30
426.58	23697.92
426.77	22214.02
426.96	21458.03
427.15	22141.47
427.33	24240.93
427.52	25111.61
427.71	25067.14
427.90	24957.13
428.09	24414.13
428.28	24154.33
428.46	23775.16
428.65	23033.21
428.84	23480.25
429.03	23868.78
429.22	22665.75
429.40	21436.97
429.59	19438.15
429.78	17013.35
429.97	17362.09
430.16	17462.74
430.34	17434.65
430.53	17322.30
430.72	17996.38
430.91	19756.46
431.10	23316.42
431.28	27225.11
431.47	29731.83
431.66	30216.32
431.85	27276.60
432.03	24978.20
432.22	24163.69
432.41	24828.40
432.60	27796.20
432.79	29223.93
432.97	29792.68
433.16	28828.38
433.35	26607.21
433.54	23981.13
433.72	21968.27
433.91	23236.84
434.10	25734.19
434.28	27150.21
434.47	29261.38
434.66	28662.20
434.85	27714.28
435.03	27660.45
435.22	28004.51
435.41	29883.96
435.59	30298.23
435.78	30668.04
435.97	31168.91
436.16	31955.33
436.34	31367.86
436.53	30176.53
436.72	30733.57
436.90	28538.15
437.09	28783.91
437.28	27885.14
437.46	29186.48
437.65	28767.52
437.84	27353.84
438.02	25106.93
438.21	24702.01
438.40	26368.48
438.58	28533.47
438.77	29022.64
438.96	29649.91
439.14	30558.03
439.33	31330.41
439.52	31981.08
439.70	31007.42
439.89	30485.48
440.08	29736.51
440.26	29666.29
440.45	30541.65
440.63	32306.41
440.82	34103.95
441.01	33684.99
441.19	33425.19
441.38	33865.21
441.57	35016.75
441.75	35950.63
441.94	36046.59
442.12	35580.82
442.31	36442.14
442.50	36163.62
442.68	35866.37
442.87	35583.16
443.05	34529.92
443.24	35222.72
443.43	35967.01
443.61	37041.32
443.80	37263.67
443.98	35173.57
444.17	35222.72
444.35	37280.05
444.54	37345.59
444.73	36966.42
444.91	35576.14
445.10	34408.22
445.28	32870.48
445.47	32858.78
445.65	32563.87
445.84	33467.32
446.02	34639.93
446.21	35445.07
446.39	35391.24
446.58	35681.47
446.77	36205.75
446.95	36638.75
447.14	37457.93
447.32	38541.60
447.51	37366.65
447.69	36395.33
447.88	35805.52
448.06	35838.28
448.25	36903.23
448.43	37282.39
448.62	36788.54
448.80	36247.88
448.99	36828.33
449.17	36891.52
449.36	36713.64
449.54	38363.72
449.73	38541.60
449.91	38740.55
450.10	40107.42
450.28	41036.61
450.46	40444.46
450.65	40842.35
450.83	40170.61
451.02	39555.05
451.20	39086.95
451.39	38899.70
451.57	38976.94
451.76	39047.16
451.94	38490.11
452.13	38185.84
452.31	36465.55
452.49	34726.53
452.68	35283.58
452.86	35346.77
453.05	35580.82
453.23	36573.21
453.42	37392.40
453.60	38349.68
453.78	38667.99
453.97	38377.76
454.15	38536.92
454.34	37532.83
454.52	37816.04
454.70	37184.09
454.89	37455.59
455.07	37605.39
455.26	38117.96
455.44	39447.39
455.62	39997.41
455.81	40198.70
455.99	39908.47
456.17	39538.67
456.36	39466.11
456.54	41038.95
456.73	40601.27
456.91	41418.12
457.09	41598.34
457.28	42190.50
457.46	40868.09
457.64	40687.87
457.83	39093.97
458.01	38653.95
458.19	39606.55
458.38	39651.02
458.56	40758.09
458.74	40996.82
458.93	39964.65
459.11	39959.97
459.29	39859.32
459.48	40093.38
459.66	39817.19
459.84	39931.88
460.03	40844.69
460.21	40477.22
460.39	41443.87
460.57	41811.33
460.76	41961.12
460.94	42227.95
461.12	41532.81
461.31	41696.64
461.49	41291.73
461.67	41450.89
461.85	42712.44
462.04	42906.70
462.22	42742.86
462.40	42698.39
462.59	42653.92
462.77	42855.21
462.95	42703.07
463.13	41991.55
463.32	41844.10
463.50	41420.46
463.68	41507.06
463.86	41771.54
464.05	41090.44
464.23	40542.76
464.41	40306.37
464.59	39639.31
464.78	41464.93
464.96	41212.15
465.14	40821.28
465.32	41560.89
465.50	42691.37
465.69	42651.58
465.87	42462.00
466.05	41516.42
466.23	39456.75
466.41	38565.01
466.60	39597.18
466.78	39459.09
466.96	40435.10
467.14	40950.01
467.32	42033.68
467.51	41549.19
467.69	40062.95
467.87	40451.48
468.05	41153.64
468.23	41394.71
468.41	40945.33
468.60	41551.53
468.78	41603.02
468.96	40980.44
469.14	41886.23
469.32	42326.25
469.50	40727.66
469.69	41254.28
469.87	40165.93
470.05	39791.45
470.23	39969.33
470.41	40535.74
470.59	40968.74
470.77	40634.04
470.95	41563.23
471.14	42300.50
471.32	41617.07
471.50	44186.97
471.68	44751.04
471.86	44638.70
472.04	45102.12
472.22	44912.54
472.40	43210.97
472.58	43159.48
472.77	42099.22
472.95	43119.69
473.13	43943.56
473.31	42703.07
473.49	43428.64
473.67	44032.50
473.85	44107.40
474.03	45390.01
474.21	45762.15
474.39	46110.89
474.57	45741.09
474.75	46256.01
474.93	45649.81
475.12	44648.06
475.30	44872.75
475.48	44701.89
475.66	45144.25
475.84	45045.95
476.02	45127.87
476.20	43999.73
476.38	45038.93
476.56	46321.54
476.74	46653.90
476.92	46806.03
477.10	47489.47
477.28	48720.59
477.46	48554.41
477.64	49186.36
477.82	49333.81
478.00	49247.21
478.18	48788.47
478.36	48484.20
478.54	48334.40
478.72	48896.13
478.90	49495.31
479.08	50380.03
479.26	50962.82
479.44	51201.56
479.62	50733.45
479.80	50569.61
479.98	50965.17
480.16	51227.31
480.34	50789.62
480.52	51168.79
480.70	51278.80
480.88	51356.03
481.06	51852.23
481.24	52329.70
481.41	52858.66
481.59	53439.11
481.77	53298.68
481.95	52821.21
482.13	52327.36
482.31	52711.20
482.49	53357.19
482.67	53083.35
482.85	52999.09
483.03	53705.93
483.21	54094.46
483.39	54047.65
483.57	53420.39
483.74	53207.40
483.92	53345.49
484.10	53645.08
484.28	54461.93
484.46	54775.56
484.64	54805.98
484.82	54061.69
485.00	53841.68
485.18	53352.51
485.35	52245.44
485.53	49422.75
485.71	46209.20
485.89	45516.40
486.07	47150.09
486.25	50646.85
486.43	52683.12
486.61	53312.72
486.78	53050.58
486.96	53141.86
487.14	54234.89
487.32	54995.57
487.50	55709.43
487.68	56676.07
487.85	56985.02
488.03	56982.68
488.21	56505.21
488.39	56025.40
488.57	55388.78
488.75	55119.62
488.92	56198.60
489.10	57792.51
489.28	58951.07
489.46	59550.25
489.64	59454.29
489.81	59332.58
489.99	59016.61
490.17	59028.31
490.35	59323.22
490.53	59032.99
490.70	58749.79
490.88	58599.99
491.06	59491.74
491.24	59428.54
491.41	58672.55
491.59	57357.17
491.77	56591.81
491.95	57289.29
492.13	58628.08
492.30	59377.05
492.48	60097.94
492.66	60495.83
492.84	60643.28
493.01	60383.48
493.19	60032.40
493.37	59552.59
493.54	59590.04
493.72	60039.42
493.90	60835.20
494.08	61244.80
494.25	61663.75
494.43	61909.51
494.61	62253.57
494.79	62152.93
494.96	61970.36
495.14	61450.77
495.32	60928.83
495.49	60257.09
495.67	60961.59
495.85	62195.06
496.02	62667.84
496.20	62309.74
496.38	62087.39
496.55	61979.73
496.73	62440.81
496.91	62511.03
497.09	62953.39
497.26	63072.76
497.44	62815.30
497.62	62384.64
497.79	61719.93
497.97	60589.45
498.14	60645.62
498.32	61516.30
498.50	62412.73
498.67	62887.85
498.85	62705.29
499.03	62876.15
499.20	63309.15
499.38	63075.10
499.56	63091.48
499.73	62536.77
499.91	62267.61
500.08	61956.32
500.26	61354.80
500.44	61577.15
500.61	62202.08
500.79	62220.80
500.97	61645.03
501.14	61663.75
501.32	61478.85
501.49	61469.49
501.67	61654.39
501.84	62024.20
502.02	62450.17
502.20	62585.92
502.37	62656.14
502.55	62731.04
502.72	63182.76
502.90	63814.71
503.07	63365.32
503.25	63082.12
503.43	62370.60
503.60	61733.97
503.78	61193.31
503.95	61787.80
504.13	62871.47
504.30	63707.04
504.48	63309.15
504.65	63157.02
504.83	63194.46
505.01	63634.48
505.18	63805.34
505.36	64467.72
505.53	64505.16
505.71	64718.15
505.88	64722.83
506.06	64177.49
506.23	64104.93
506.41	63494.05
506.58	63777.26
506.76	63908.33
506.93	63716.40
507.11	63559.59
507.28	63641.51
507.46	63236.59
507.63	62681.89
507.81	62405.70
507.98	62782.53
508.16	63370.00
508.33	63704.70
508.50	64048.76
508.68	64266.43
508.85	64830.50
509.03	64654.96
509.20	64582.40
509.38	63924.71
509.55	63484.69
509.73	63678.96
509.90	64060.46
510.08	64240.68
510.25	64172.81
510.42	63845.13
510.60	63817.05
510.77	64313.24
510.95	64505.16
511.12	64760.28
511.30	65008.38
511.47	65300.95
511.64	65223.71
511.82	64959.23
511.99	64144.72
512.17	63814.71
512.34	63552.57
512.51	63611.08
512.69	63728.11
512.86	63847.47
513.04	64114.29
513.21	64399.84
513.38	64037.06
513.56	63475.33
513.73	62986.16
513.90	63119.57
514.08	63192.12
514.25	63470.65
514.43	63503.42
514.60	63578.31
514.77	63838.11
514.95	64018.33
515.12	63875.56
515.29	64133.02
515.47	64484.10
515.64	64711.13
515.81	64285.15
515.99	63868.54
516.16	62578.90
516.33	60631.58
516.51	59346.62
516.68	58843.41
516.85	58609.35
517.03	58674.89
517.20	60851.59
517.37	63004.88
517.54	64069.82
517.72	63669.59
517.89	61539.71
518.06	59416.84
518.24	59632.17
518.41	61687.16
518.58	62747.42
518.75	63011.90
518.93	63009.56
519.10	62834.02
519.27	63276.38
519.45	63517.46
519.62	64044.08
519.79	64551.98
519.96	64484.10
520.14	63913.01
520.31	63260.00
520.48	62960.41
520.65	63372.34
520.83	64341.33
521.00	64771.99
521.17	64128.34
521.34	64015.99
521.52	64224.30
521.69	64676.02
521.86	65139.45
522.03	64961.57
522.20	63671.93
522.38	62852.75
522.55	62798.91
522.72	63334.90
522.89	63430.86
523.07	63781.94
523.24	64030.04
523.41	64605.81
523.58	65106.68
523.75	65455.42
523.92	65289.24
524.10	65120.73
524.27	65289.24
524.44	64999.02
524.61	64835.18
524.78	64659.64
524.96	64661.98
525.13	64781.35
525.30	64746.24
525.47	65436.70
525.64	65132.43
525.81	64638.57
525.98	63311.49
526.16	62129.52
526.33	61516.30
526.50	61258.84
526.67	60828.18
526.84	61254.16
527.01	62248.89
527.18	62862.11
527.36	63817.05
527.53	64683.04
527.70	64804.75
527.87	64376.43
528.04	63744.49
528.21	64271.11
528.38	65064.55
528.55	65392.23
528.72	65535.00
528.89	65535.00
529.07	65476.49
529.24	65106.68
529.41	64514.53
529.58	63774.92
529.75	64018.33
529.92	64348.35
530.09	64669.00
530.26	65214.35
530.43	65497.55
530.60	65303.29
530.77	65535.00
530.94	65535.00
531.11	65310.31
531.28	64961.57
531.46	64910.08
531.63	65034.13
531.80	64823.48
531.97	64477.08
532.14	63833.43
532.31	62885.51
532.48	62340.17
532.65	62401.02
532.82	63264.68
532.99	64184.51
533.16	64376.43
533.33	64830.50
533.50	64781.35
533.67	64198.55
533.84	63753.85
534.01	63990.25
534.18	64301.54
534.35	64404.52
534.52	64179.83
534.69	64367.07
534.86	64844.54
535.03	64844.54
535.20	65289.24
535.37	65535.00
535.54	65535.00
535.71	65443.72
535.88	65176.90
536.05	64537.93
536.22	64355.37
536.38	63990.25
536.55	63393.41
536.72	63096.16
536.89	63007.22
537.06	63842.79
537.23	64512.19
537.40	64481.76
537.57	64786.03
537.74	64376.43
537.91	64390.48
538.08	64273.45
538.25	64427.93
538.42	64605.81
538.59	64540.27
538.75	63852.15
538.92	63669.59
539.09	63519.80
539.26	63362.98
539.43	63180.42
539.60	63423.84
539.77	63550.23
539.94	63494.05
540.11	62702.95
540.28	62094.41
540.44	62307.40
540.61	62588.27
540.78	62852.75
540.95	63147.65
541.12	63510.44
541.29	63655.55
541.46	63898.97
541.62	64083.87
541.79	63852.15
541.96	63353.62
542.13	63295.11
542.30	63437.88
542.47	63739.81
542.63	63430.86
542.80	63414.47
542.97	63344.26
543.14	63402.77
543.31	63337.24
543.48	63849.81
543.64	64456.01
543.81	64692.41
543.98	64722.83
544.15	63948.12
544.32	63400.43
544.48	63458.94
544.65	63849.81
544.82	64275.79
544.99	63861.52
545.16	63723.43
545.32	63318.51
545.49	64149.40
545.66	64336.65
545.83	64128.34
546.00	63714.06
546.16	63531.50
546.33	63536.18
546.50	63601.72
546.67	64020.67
546.83	63585.33
547.00	63669.59
547.17	63145.31
547.34	62443.15
547.50	62398.68
547.67	62951.05
547.84	63018.92
548.00	63248.30
548.17	63643.85
548.34	63416.82
548.51	63634.48
548.67	63531.50
548.84	63721.08
549.01	63634.48
549.18	63690.66
549.34	63545.54
549.51	63522.14
549.68	63437.88
549.84	63227.23
550.01	63047.01
550.18	63044.67
550.34	63208.51
550.51	63236.59
550.68	63360.64
550.84	62934.66
551.01	62990.84
551.18	62780.19
551.34	63035.31
551.51	63304.47
551.68	63634.48
551.84	63543.20
552.01	63552.57
552.18	63433.20
552.34	62571.88
552.51	62284.00
552.68	62115.48
552.84	62681.89
553.01	62955.73
553.18	62777.85
553.34	63187.44
553.51	63035.31
553.67	63290.43
553.84	63372.34
554.01	63255.32
554.17	63084.46
554.34	63028.29
554.51	63192.12
554.67	63568.95
554.84	63330.22
555.00	63032.97
555.17	62944.03
555.33	62894.88
555.50	62836.36
555.67	62738.06
555.83	62698.27
556.00	62471.24
556.16	62316.76
556.33	62056.96
556.50	62056.96
556.66	62094.41
556.83	61792.48
556.99	62031.22
557.16	61975.05
557.32	62195.06
557.49	62422.09
557.65	62443.15
557.82	62482.94
557.98	62356.55
558.15	61932.92
558.32	61221.39
558.48	60432.63
558.65	60582.43
558.81	61071.60
558.98	61347.78
559.14	61223.73
559.31	61446.08
559.47	61322.04
559.64	61298.63
559.80	60800.10
559.97	60865.63
560.13	61427.36
560.30	62173.99
560.46	62543.80
560.63	62686.57
560.79	62887.85
560.96	62518.05
561.12	61237.78
561.29	60835.20
561.45	60729.88
561.61	61310.33
561.78	61558.43
561.94	61427.36
562.11	61518.64
562.27	61118.41
562.44	61502.26
562.60	61773.76
562.77	62061.64
562.93	61949.30
563.10	61748.01
563.26	61116.07
563.42	61450.77
563.59	61207.35
563.75	61073.94
563.92	61155.86
564.08	61099.68
564.24	61104.37
564.41	61275.22
564.57	61268.20
564.74	61193.31
564.90	61284.59
565.07	60985.00
565.23	60699.45
565.39	60172.83
565.56	60046.44
565.72	59810.05
565.88	60149.43
566.05	60313.26
566.21	60502.85
566.38	60617.53
566.54	60575.40
566.70	60959.25
566.87	61090.32
567.03	61038.83
567.19	61413.32
567.36	61083.30
567.52	61095.00
567.68	60603.49
567.85	60147.09
568.01	59920.05
568.17	59615.79
568.34	59772.60
568.50	59461.31
568.66	59683.66
568.83	59938.78
568.99	59999.63
569.15	60346.03
569.32	60320.29
569.48	59817.07
569.64	59845.16
569.81	59615.79
569.97	59304.49
570.13	59316.20
570.30	59217.89
570.46	58754.47
570.62	58436.16
570.78	58129.54
570.95	58515.73
571.11	59145.34
571.27	59416.84
571.43	59281.09
571.60	59543.23
571.76	59898.99
571.92	60147.09
572.09	60069.85
572.25	60044.10
572.41	60116.66
572.57	59796.01
572.74	60027.72
572.90	59559.61
573.06	59407.48
573.22	59721.11
573.38	59821.75
573.55	59599.40
573.71	59643.87
573.87	59545.57
574.03	59437.90
574.20	59667.28
574.36	59126.61
574.52	59203.85
574.68	58939.37
574.84	58674.89
575.01	58246.57
575.17	58078.05
575.33	58335.51
575.49	58646.80
575.65	58768.51
575.82	58775.53
575.98	58344.87
576.14	58834.05
576.30	58794.26
576.46	59014.27
576.62	58855.11
576.79	59035.33
576.95	58567.23
577.11	58436.16
577.27	58417.43
577.43	58812.98
577.59	58312.11
577.75	58115.50
577.92	57759.74
578.08	57446.11
578.24	57354.83
578.40	57605.26
578.56	57935.28
578.72	57886.13
578.88	58255.93
579.04	58344.87
579.21	58284.02
579.37	58328.49
579.53	58387.00
579.69	58396.37
579.85	58595.31
580.01	58375.30
580.17	57911.88
580.33	58038.26
580.49	57867.40
580.65	58085.07
580.82	58262.96
580.98	58216.14
581.14	58300.40
581.30	58342.53
581.46	57900.17
581.62	58361.26
581.78	58370.62
581.94	58513.39
582.10	58277.00
582.26	58452.54
582.42	58351.90
582.58	58461.90
582.74	58419.77
582.90	58429.13
583.06	58417.43
583.22	58300.40
583.38	58157.63
583.54	57958.69
583.70	58302.74
583.86	58131.89
584.02	57879.11
584.18	58157.63
584.34	57979.75
584.50	57869.75
584.66	57661.44
584.82	57567.82
584.98	57504.62
585.14	57305.68
585.30	56500.53
585.46	56383.51
585.62	56193.92
585.78	56821.19
585.94	56559.05
586.10	56793.10
586.26	57336.10
586.42	57345.47
586.58	57464.83
586.74	57235.46
586.90	57378.23
587.06	57226.10
587.22	57141.84
587.38	56837.57
587.54	56563.73
587.70	56636.28
587.86	56357.76
588.02	56074.55
588.18	56170.52
588.34	55072.81
588.49	53572.52
588.65	51714.14
588.81	51320.93
588.97	51931.81
589.13	51987.98
589.29	51461.36
589.45	52055.85
589.61	53408.68
589.77	54426.82
589.93	55093.87
590.08	55320.90
590.24	55730.50
590.40	55679.00
590.56	55800.71
590.72	55636.87
590.88	55283.45
591.04	55007.27
591.20	55128.98
591.35	54824.71
591.51	55274.09
591.67	54976.84
591.83	55267.07
591.99	55231.96
592.15	55318.56
592.31	55297.50
592.46	55370.05
592.62	55054.08
592.78	54869.18
592.94	55011.95
593.10	55117.28
593.26	55278.77
593.41	55370.05
593.57	55290.48
593.73	54976.84
593.89	54557.89
594.05	54534.48
594.20	54246.60
594.36	54185.74
594.52	53818.28
594.68	53689.55
594.84	54052.33
594.99	54447.88
595.15	54527.46
595.31	54726.41
595.47	54452.56
595.62	54773.22
595.78	54770.88
595.94	54925.35
596.10	54941.74
596.25	54913.65
596.41	54609.38
596.57	54440.86
596.73	54787.26
596.88	54630.44
597.04	54534.48
597.20	54335.54
597.36	54152.97
597.51	54181.06
597.67	54511.08
597.83	54197.44
597.99	54080.42
598.14	53560.82
598.30	53773.81
598.46	53305.70
598.61	53834.66
598.77	53734.02
598.93	53970.41
599.09	54216.17
599.24	54291.07
599.40	53956.37
599.56	54143.61
599.71	54150.63
599.87	53944.67
600.03	53677.85
600.18	53593.59
600.34	53467.20
600.50	53165.27
600.65	53062.29
600.81	53324.43
600.97	53329.11
601.12	53251.87
601.28	53097.39
601.44	53202.72
601.59	53200.38
601.75	52662.05
601.91	52552.05
602.06	52545.03
602.22	52875.04
602.37	52893.77
602.53	53003.77
602.69	53457.84
602.84	53736.36
603.00	53469.54
603.16	53982.12
603.31	53642.74
603.47	53584.22
603.62	53584.22
603.78	53694.23
603.94	53048.24
604.09	53607.63
604.25	53055.26
604.40	53221.44
604.56	53244.85
604.71	53448.47
604.87	53017.82
605.03	52992.07
605.18	52884.40
605.34	52577.79
605.49	52671.42
605.65	52966.32
605.80	52772.06
605.96	52491.19
606.12	52186.92
606.27	52135.43
606.43	52186.92
606.58	52446.72
606.74	52360.12
606.89	52814.19
607.05	52863.34
607.20	52877.38
607.36	52423.32
607.51	51826.48
607.67	51709.46
607.82	51573.70
607.98	51454.34
608.13	51847.55
608.29	51430.93
608.44	51313.90
608.60	51318.59
608.75	51150.07
608.91	51620.52
609.06	51210.92
609.22	51512.85
609.37	51700.09
609.53	51353.69
609.68	50920.70
609.84	50204.49
609.99	49848.73
610.15	50300.45
610.30	50546.21
610.46	50745.15
610.61	51353.69
610.76	51185.18
610.92	51524.55
611.07	51660.30
611.23	51519.87
611.38	51356.03
611.54	50941.76
611.69	50188.11
611.84	50038.31
612.00	49752.77
612.15	49415.73
612.31	50031.29
612.46	50017.25
612.62	50075.76
612.77	50153.00
612.92	50347.26
613.08	49677.87
613.23	48858.68
613.39	48289.93
613.54	48095.67
613.69	48760.38
613.85	48327.38
614.00	48725.27
614.15	49476.58
614.31	48992.09
614.46	49162.95
614.62	49518.71
614.77	49605.31
614.92	49581.91
615.08	49336.15
615.23	49120.82
615.38	48865.70
615.54	48329.72
615.69	47264.78
615.84	46136.64
616.00	45972.80
616.15	46312.18
616.30	47037.75
616.46	46770.93
616.61	46920.72
616.76	47100.94
616.92	47136.05
617.07	47622.88
617.22	47735.23
617.37	48039.50
617.53	47980.98
617.68	48182.27
617.83	48341.42
617.99	48474.84
618.14	48444.41
618.29	47992.68
618.45	47896.72
618.60	47192.22
618.75	46993.28
618.90	47021.36
619.06	47667.35
619.21	47999.71
619.36	47959.92
619.51	47550.32
619.67	47571.39
619.82	47578.41
619.97	47547.98
620.12	47290.52
620.28	47452.02
620.43	47533.94
620.58	47629.90
620.73	47517.56
620.89	46784.97
621.04	46911.36
621.19	46632.83
621.34	45591.30
621.49	45785.56
621.65	46005.57
621.80	45972.80
621.95	46370.69
622.10	46363.67
622.25	46366.01
622.41	45940.04
622.56	45390.01
622.71	45205.11
622.86	44814.24
623.01	45581.93
623.16	45251.92
623.32	45071.70
623.47	45502.35
623.62	45329.16
623.77	44919.56
623.92	44795.51
624.07	44112.08
624.23	43749.29
624.38	43548.01
624.53	43786.74
624.68	43892.07
624.83	44194.00
624.98	43131.39
625.13	43257.78
625.29	42979.26
625.44	43126.71
625.59	43393.53
625.74	43718.87
625.89	43580.78
626.04	43772.70
626.19	44002.07
626.34	43690.78
626.49	43821.85
626.65	43452.05
626.80	43650.99
626.95	43871.00
627.10	43309.27
627.25	42260.71
627.40	41560.89
627.55	41053.00
627.70	39845.28
627.85	40210.40
628.00	40793.20
628.15	41720.05
628.30	41944.74
628.45	41752.82
628.60	41933.04
628.76	41677.92
628.91	41647.49
629.06	41336.20
629.21	41738.77
629.36	41235.56
629.51	41001.50
629.66	40383.60
629.81	40357.86
629.96	40149.55
630.11	40524.04
630.26	40594.25
630.41	41111.51
630.56	41305.77
630.71	41331.52
630.86	41031.93
631.01	40561.48
631.16	40512.33
631.31	39592.50
631.46	39105.67
631.61	39721.23
631.76	39990.39
631.91	40334.45
632.06	40355.52
632.21	41092.79
632.36	40952.35
632.51	40980.44
632.66	41230.88
632.81	40931.29
632.96	40840.01
633.10	40704.26
633.25	39562.08
633.40	39742.30
633.55	40105.08
633.70	39899.11
633.85	39828.90
634.00	39751.66
634.15	39997.41
634.30	39805.49
634.45	40009.12
634.60	39908.47
634.75	40243.17
634.90	40100.40
635.05	40196.36
635.19	39903.79
635.34	39597.18
635.49	39409.94
635.64	39548.03
635.79	38927.79
635.94	38820.13
636.09	39274.19
636.24	38352.02
636.39	39126.74
636.53	39388.88
636.68	39700.17
636.83	39395.90
636.98	39807.83
637.13	39646.33
637.28	39765.70
637.43	39587.82
637.57	39358.45
637.72	39196.95
637.87	39321.00
638.02	39391.22
638.17	39199.29
638.32	39477.82
638.46	38724.16
638.61	39370.15
638.76	38609.48
638.91	38209.25
639.06	37944.76
639.20	37944.76
639.35	38160.09
639.50	37493.04
639.65	37614.75
639.80	37095.15
639.94	37593.68
640.09	37895.61
640.24	37752.84
640.39	37666.24
640.54	37109.19
640.68	37226.22
640.83	37127.92
640.98	36472.57
641.13	36512.36
641.27	37312.82
641.42	36821.31
641.57	36645.77
641.72	36697.26
641.86	36943.02
642.01	36437.46
642.16	37502.40
642.31	37127.92
642.45	37603.05
642.60	36889.18
642.75	36886.84
642.90	36290.01
643.04	36252.56
643.19	36481.93
643.34	36081.70
643.48	35833.60
643.63	35849.99
643.78	35737.64
643.93	36559.17
644.07	36814.29
644.22	36582.57
644.37	36201.07
644.51	36203.41
644.66	35737.64
644.81	35754.02
644.95	35730.62
645.10	35494.22
645.25	34873.98
645.39	35267.19
645.54	34810.79
645.69	35140.80
645.83	34501.84
645.98	34487.79
646.13	34653.97
646.27	34541.63
646.42	34326.30
646.57	34398.85
646.71	34361.40
646.86	34160.12
647.00	34117.99
647.15	33837.12
647.30	33104.54
647.44	33755.21
647.59	33366.68
647.74	33315.19
647.88	33104.54
648.03	33383.06
648.17	33539.88
648.32	33549.24
648.47	33944.79
648.61	33610.09
648.76	33603.07
648.90	32847.08
649.05	31871.07
649.20	31307.01
649.34	31152.53
649.49	31182.96
649.63	32112.15
649.78	32020.87
649.92	33104.54
650.07	32886.87
650.21	33851.17
650.36	33769.25
650.51	33684.99
650.65	34019.69
650.80	33546.90
650.94	33172.41
651.09	32940.70
651.23	32018.53
651.38	31557.44
651.52	31637.02
651.67	31630.00
651.81	32325.14
651.96	32842.40
652.10	32545.15
652.25	32554.51
652.39	32713.67
652.54	32769.84
652.68	32568.55
652.83	32524.08
652.97	32491.32
653.12	32481.95
653.26	32442.17
653.41	32491.32
653.55	32243.22
653.70	32395.35
653.84	32395.35
653.99	32158.96
654.13	31641.70
654.27	31154.87
654.42	30876.35
654.56	30478.46
654.71	30726.55
654.85	30469.09
655.00	30338.02
655.14	29916.73
655.29	29914.39
655.43	29043.71
655.57	27758.75
655.72	26059.52
655.86	24140.29
656.01	22534.68
656.15	23168.96
656.30	24631.80
656.44	25525.88
656.58	26911.48
656.73	28254.95
656.87	28828.38
657.01	28954.77
657.16	29336.27
657.30	29624.16
657.45	29888.64
657.59	30691.44
657.73	30286.53
657.88	29940.13
658.02	30438.67
658.16	30581.44
658.31	29912.05
658.45	30211.64
658.60	30029.07
658.74	30272.49
658.88	29514.16
659.03	29483.73
659.17	29102.22
659.31	29193.50
659.46	29226.27
659.60	29862.90
659.74	29806.72
659.89	30132.06
660.03	29940.13
660.17	29926.09
660.32	29720.12
660.46	30293.55
660.60	29642.88
660.74	29652.25
660.89	29610.12
661.03	29233.29
661.17	29766.93
661.32	29235.63
661.46	29769.27
661.60	29392.45
661.74	29509.47
661.89	29790.34
662.03	29539.90
662.17	29385.43
662.31	29380.74
662.46	29383.09
662.60	29355.00
662.74	28570.92
662.88	28500.70
663.03	28278.35
663.17	28306.44
663.31	27995.15
663.45	28299.42
663.60	28254.95
663.74	27934.29
663.88	28133.24
664.02	28063.02
664.17	28088.77
664.31	27714.28
664.45	27885.14
664.59	28229.20
664.73	28617.73
664.88	28627.09
665.02	27847.69
665.16	28072.39
665.30	28046.64
665.44	27978.76
665.59	27681.52
665.73	27328.10
665.87	27047.23
666.01	26843.60
666.15	26939.57
666.29	26672.74
666.44	27182.98
666.58	26918.50
666.72	26780.41
666.86	27115.11
667.00	27424.06
667.14	27115.11
667.28	27072.98
667.43	26628.27
667.57	26867.01
667.71	26515.93
667.85	26785.09
667.99	26443.37
668.13	26735.94
668.27	26574.44
668.41	26808.50
668.56	26242.09
668.70	26780.41
668.84	26480.82
668.98	26111.02
669.12	26153.15
669.26	26040.80
669.40	25879.30
669.54	25965.90
669.68	26052.50
669.82	25834.83
669.96	25766.96
670.10	25563.33
670.25	25563.33
670.39	25458.01
670.53	25357.36
670.67	25287.15
670.81	25156.08
670.95	24978.20
671.09	24765.21
671.23	24575.62
671.37	24425.83
671.51	24582.65
671.65	24613.07
671.79	24259.65
671.93	24367.32
672.07	24985.22
672.21	24662.22
672.35	24355.61
672.49	24533.50
672.63	24449.24
672.77	24070.07
672.91	24189.44
673.05	24280.72
673.19	23903.89
673.33	24095.82
673.47	24276.04
673.61	23964.75
673.75	23646.43
673.89	23831.33
674.03	23641.75
674.17	23751.76
674.31	23828.99
674.45	23529.41
674.59	23206.41
674.73	23056.62
674.87	23150.24
675.01	22995.76
675.15	22773.41
675.29	22874.06
675.43	23171.30
675.56	23047.26
675.70	23262.58
675.84	22932.57
675.98	22221.05
676.12	22799.16
676.26	22717.24
676.40	22607.23
676.54	22139.13
676.68	22377.86
676.82	21888.69
676.96	22560.42
677.10	21848.90
677.23	22216.36
677.37	22223.39
677.51	21844.22
677.65	22012.74
677.79	21795.07
677.93	21652.30
678.07	21392.50
678.21	21200.57
678.34	21046.10
678.48	20786.30
678.62	21102.27
678.76	21188.87
678.90	20912.69
679.04	21233.34
679.18	21212.28
679.31	20709.06
679.45	20690.34
679.59	20800.34
679.73	20751.19
679.87	20465.64
680.00	20526.50
680.14	20348.62
680.28	19969.45
680.42	20203.50
680.56	19709.65
680.70	19534.11
680.83	19609.01
680.97	19438.15
681.11	19901.58
681.25	19981.15
681.39	19791.57
681.52	19735.40
681.66	19871.15
681.80	19646.46
681.94	19548.15
682.07	19461.55
682.21	19316.44
682.35	19014.51
682.49	18984.09
682.62	18869.40
682.76	18824.93
682.90	18530.02
683.04	18988.77
683.17	18319.37
683.31	18778.12
683.45	18600.24
683.59	18420.02
683.72	18010.42
683.86	17689.77
684.00	17678.07
684.13	17769.35
684.27	17799.77
684.41	17633.60
684.55	17640.62
684.68	17860.63
684.82	17745.94
684.96	17884.03
685.09	17575.08
685.23	17149.11
685.37	17142.08
685.50	17359.75
685.64	16931.44
685.78	16908.03
685.91	16989.95
686.05	16980.59
686.19	16376.73
686.32	15623.08
686.46	13858.31
686.60	12271.43
686.73	11040.31
686.87	10544.11
687.01	10370.91
687.14	10590.92
687.28	10995.84
687.42	11094.14
687.55	12418.88
687.69	12723.15
687.82	13249.77
687.96	13933.21
688.10	13640.64
688.23	13710.86
688.37	13448.72
688.50	13312.97
688.64	12901.03
688.78	12706.77
688.91	12950.18
689.05	12924.44
689.18	12791.03
689.32	12589.74
689.46	12732.51
689.59	12762.94
689.73	13078.91
689.86	13015.72
690.00	13294.24
690.13	13034.44
690.27	13001.68
690.41	13020.40
690.54	12936.14
690.68	13373.82
690.81	12975.93
690.95	13401.91
691.08	13186.58
691.22	13348.08
691.35	13170.19
691.49	12961.89
691.62	13055.51
691.76	13034.44
691.89	13294.24
692.03	12945.50
692.16	13198.28
692.30	12882.31
692.43	12744.22
692.57	12634.21
692.70	12758.26
692.84	12379.09
692.97	12262.07
693.11	12236.32
693.24	12273.77
693.38	12432.93
693.51	12358.03
693.65	12138.02
693.78	11845.45
693.92	11840.77
694.05	11838.43
694.19	11976.52
694.32	11754.17
694.45	11765.87
694.59	11843.11
694.72	11796.30
694.86	11695.66
694.99	11660.55
695.13	11709.70
695.26	11693.32
695.39	11325.85
695.53	11623.10
695.66	11358.62
695.80	11372.66
695.93	11440.54
696.07	11569.27
696.20	11702.68
696.33	11611.40
696.47	11709.70
696.60	11784.60
696.73	11754.17
696.87	11981.20
697.00	11871.20
697.14	11651.19
697.27	11435.86
697.40	11367.98
697.54	11112.86
697.67	10853.06
697.80	10771.15
697.94	10539.43
698.07	10600.29
698.21	10668.16
698.34	10736.04
698.47	10394.32
698.61	10389.64
698.74	10237.50
698.87	10354.53
699.01	10420.06
699.14	10003.45
699.27	10391.98
699.40	10497.30
699.54	10209.42
699.67	9769.40
699.80	10260.91
699.94	10052.60
700.07	9832.59
700.20	9706.20
700.34	9448.74
700.47	9444.06
700.60	9509.60
700.73	9699.18
700.87	9624.28
701.00	9413.63
701.13	9376.19
701.26	9317.67
701.40	9034.47
701.53	9233.41
701.66	9411.29
701.79	9287.25
701.93	9242.78
702.06	9109.36
702.19	8870.63
702.32	9055.53
702.46	8980.64
702.59	9006.38
702.72	8954.89
702.85	9114.05
702.99	8950.21
703.12	8814.46
703.25	8985.32
703.38	8947.87
703.51	8692.75
703.65	8381.46
703.78	8634.24
703.91	8676.37
704.04	8692.75
704.17	8652.96
704.31	8758.28
704.44	8655.30
704.57	8739.56
704.70	8795.73
704.83	8608.49
704.96	8526.57
705.10	8327.63
705.23	8252.73
>>>>>End Processed Spectral Data<<<<<
