SpectraSuite Data File
++++++++++++++++++++++++++++++++++++
Date: Mon Oct 07 14:54:00 GMT-05:00 2013
User: price-jones
Dark Spectrum Present: No
Reference Spectrum Present: No
Number of Sampled Component Spectra: 1
Spectrometers: USB2+H05261
Integration Time (usec): 100000 (USB2+H05261)
Spectra Averaged: 1 (USB2+H05261)
Boxcar Smoothing: 0 (USB2+H05261)
Correct for Electrical Dark: No (USB2+H05261)
Strobe/Lamp Enabled: No (USB2+H05261)
Correct for Detector Non-linearity: No (USB2+H05261)
Correct for Stray Light: No (USB2+H05261)
Number of Pixels in Processed Spectrum: 2048
>>>>>Begin Processed Spectral Data<<<<<
365.73	0.00
365.92	0.00
366.12	0.00
366.32	0.00
366.52	0.00
366.72	0.00
366.91	0.00
367.11	0.00
367.31	0.00
367.51	0.00
367.70	0.00
367.90	0.00
368.10	0.00
368.30	0.00
368.49	0.00
368.69	0.00
368.89	0.00
369.09	0.00
369.28	0.00
369.48	0.00
369.68	0.00
369.87	0.00
370.07	0.00
370.27	0.00
370.47	634.29
370.66	3346.97
370.86	4016.36
371.06	4264.46
371.25	4477.44
371.45	3971.89
371.65	3679.32
371.84	3272.07
372.04	3496.76
372.24	3948.48
372.44	4105.30
372.63	3990.61
372.83	3686.34
373.03	3265.05
373.22	3047.38
373.42	3066.10
373.62	3812.73
373.81	4070.19
374.01	3948.48
374.21	3588.04
374.40	3314.20
374.60	3417.18
374.79	3850.18
374.99	4711.50
375.19	5027.47
375.38	4791.08
375.58	4657.67
375.78	4559.36
375.97	4730.22
376.17	4786.40
376.37	4744.27
376.56	4847.25
376.76	5394.93
376.95	5521.32
377.15	5909.85
377.35	6164.97
377.54	6445.84
377.74	6429.45
377.93	6541.80
378.13	6408.39
378.33	6029.22
378.52	5528.35
378.72	5263.86
378.91	5413.66
379.11	5107.05
379.31	4975.98
379.50	4985.34
379.70	5362.17
379.89	5893.47
380.09	6216.46
380.28	6427.11
380.48	6291.36
380.68	6352.21
380.87	6300.72
381.07	5837.30
381.26	5350.46
381.46	5022.79
381.65	4929.17
381.85	4777.03
382.04	4507.87
382.24	4208.28
382.43	3950.82
382.63	3934.44
382.83	4044.45
383.02	3789.33
383.22	3887.63
383.41	3911.04
383.61	4088.92
383.80	4760.65
384.00	5336.42
384.19	6134.54
384.39	6263.27
384.58	6272.64
384.78	6106.46
384.97	6134.54
385.17	5954.32
385.36	5643.03
385.56	5315.36
385.75	5371.53
385.95	6090.07
386.14	6548.82
386.34	6541.80
386.53	6324.13
386.72	5980.07
386.92	6043.26
387.11	6188.38
387.31	6558.18
387.50	6354.55
387.70	6183.70
387.89	6160.29
388.09	6244.55
388.28	6244.55
388.48	6370.94
388.67	6668.19
388.86	7407.80
389.06	8016.33
389.25	8477.42
389.45	8486.78
389.64	8362.73
389.84	8336.99
390.03	8152.09
390.22	8210.60
390.42	8479.76
390.61	9041.49
390.81	9668.75
391.00	9816.21
391.19	9612.58
391.39	9364.48
391.58	8823.82
391.78	8435.29
391.97	8241.03
392.16	7470.99
392.36	6998.20
392.55	5586.86
392.75	4320.63
392.94	3749.54
393.13	3531.87
393.33	4205.94
393.52	5497.92
393.71	6759.47
393.91	7396.09
394.10	7831.43
394.29	8802.75
394.49	9572.79
394.68	10167.29
394.88	10291.34
395.07	10572.20
395.26	10466.88
395.46	10195.37
395.65	9738.97
395.84	8631.90
396.04	7084.80
396.23	5818.57
396.42	5109.39
396.62	4662.35
396.81	5336.42
397.00	7007.56
397.19	8564.02
397.39	10333.47
397.58	11473.31
397.77	12276.11
397.97	13085.94
398.16	12894.01
398.35	13401.91
398.55	13570.43
398.74	14307.69
398.93	14597.92
399.12	14434.08
399.32	14008.11
399.51	14305.35
399.70	15304.76
399.90	14918.57
400.09	14871.76
400.28	14743.03
400.47	14862.40
400.67	15791.59
400.86	16208.21
401.05	16142.67
401.24	15960.11
401.44	16390.77
401.63	16615.46
401.82	16465.67
402.01	16402.47
402.21	16952.50
402.40	17083.57
402.59	16142.67
402.78	15672.23
402.97	15131.56
403.17	15707.34
403.36	16404.81
403.55	17348.05
403.74	17598.49
403.93	16652.91
404.13	15520.09
404.32	15176.03
404.51	15859.47
404.70	16929.09
404.89	16950.16
405.09	16631.85
405.28	16226.93
405.47	16201.19
405.66	16149.70
405.85	15716.70
406.05	15267.31
406.24	15695.63
406.43	16343.96
406.62	16816.75
406.81	16697.38
407.00	16362.69
407.20	16070.12
407.39	16081.82
407.58	16821.43
407.77	17682.75
407.96	18192.98
408.15	18253.84
408.34	18457.46
408.54	19140.90
408.73	19171.33
408.92	18895.14
409.11	18438.74
409.30	17535.29
409.49	16292.47
409.68	15293.06
409.87	14824.95
410.07	15901.60
410.26	16994.63
410.45	18427.04
410.64	18764.07
410.83	19269.63
411.02	19534.11
411.21	20397.77
411.40	20379.04
411.59	20355.64
411.78	19999.88
411.98	19580.92
412.17	20147.33
412.36	20002.22
412.55	20210.53
412.74	19403.04
412.93	19012.17
413.12	19267.29
413.31	21111.63
413.50	21062.48
413.69	21656.98
413.88	20680.97
414.07	19775.19
414.26	20725.44
414.45	21081.21
414.64	21469.73
414.83	21013.33
415.02	20758.21
415.22	20870.56
415.41	21406.54
415.60	21783.37
415.79	22579.15
415.98	23302.37
416.17	23147.90
416.36	22593.19
416.55	22445.74
416.74	21790.39
416.93	21010.99
417.12	21078.86
417.31	21195.89
417.50	21617.19
417.69	22398.93
417.88	22258.49
418.07	21827.84
418.26	21706.13
418.45	21949.54
418.64	22581.49
418.83	23405.36
419.02	23183.01
419.21	23068.32
419.39	21888.69
419.58	21062.48
419.77	20758.21
419.96	21750.60
420.15	22904.48
420.34	23770.48
420.53	24664.57
420.72	24854.15
420.91	25069.48
421.10	24360.30
421.29	24212.84
421.48	23578.56
421.67	24657.54
421.86	24091.13
422.05	22508.93
422.24	19953.07
422.43	19419.42
422.61	21888.69
422.80	23880.49
422.99	23796.23
423.18	22623.62
423.37	22541.70
423.56	22455.10
423.75	22831.93
423.94	23234.50
424.13	22125.08
424.32	22412.97
424.50	21956.57
424.69	22059.55
424.88	22185.94
425.07	21977.63
425.26	21935.50
425.45	21867.63
425.64	21291.85
425.83	21317.60
426.01	22780.43
426.20	23419.40
426.39	22927.89
426.58	21600.80
426.77	19744.76
426.96	19180.69
427.15	19709.65
427.33	21319.94
427.52	21872.31
427.71	22443.40
427.90	21914.44
428.09	22228.07
428.28	21305.90
428.46	20982.90
428.65	20744.17
428.84	20872.90
429.03	21228.66
429.22	20346.28
429.40	18899.83
429.59	17242.73
429.78	15272.00
429.97	15143.27
430.16	15786.91
430.34	15609.03
430.53	15499.03
430.72	15824.36
430.91	17586.79
431.10	20805.02
431.28	24308.80
431.47	26256.13
431.66	26553.38
431.85	24217.52
432.03	22438.72
432.22	20985.24
432.41	22094.66
432.60	24599.03
432.79	25715.47
432.97	26197.62
433.16	25752.91
433.35	23335.14
433.54	20957.16
433.72	19803.27
433.91	20250.32
434.10	22443.40
434.28	23960.06
434.47	25661.63
434.66	24919.68
434.85	24311.14
435.03	24084.11
435.22	24727.76
435.41	26806.16
435.59	26511.25
435.78	26923.18
435.97	27494.27
436.16	27709.60
436.34	27417.04
436.53	26838.92
436.72	26878.71
436.90	25369.07
437.09	25509.50
437.28	24954.79
437.46	25525.88
437.65	25685.04
437.84	24243.27
438.02	22225.73
438.21	21661.66
438.40	23103.43
438.58	25207.57
438.77	25579.71
438.96	25729.51
439.14	27166.60
439.33	27564.49
439.52	27786.84
439.70	27374.91
439.89	26714.87
440.08	26118.04
440.26	26115.70
440.45	26642.32
440.63	28290.06
440.82	30291.21
441.01	29769.27
441.19	29125.63
441.38	29958.86
441.57	30759.32
441.75	31269.56
441.94	31379.56
442.12	31461.48
442.31	32194.07
442.50	31835.97
442.68	31541.06
442.87	30937.20
443.05	30352.07
443.24	30972.31
443.43	31632.34
443.61	32500.68
443.80	32428.12
443.98	30782.73
444.17	30771.02
444.35	32444.51
444.54	33174.75
444.73	32435.14
444.91	31519.99
445.10	30024.39
445.28	28851.78
445.47	28198.77
445.65	28751.14
445.84	29729.48
446.02	30363.77
446.21	30754.64
446.39	31154.87
446.58	31395.95
446.77	32004.49
446.95	32048.96
447.14	33144.33
447.32	33607.75
447.51	32842.40
447.69	31232.11
447.88	31192.32
448.06	31571.49
448.25	32009.17
448.43	32540.47
448.62	31842.99
448.80	31915.54
448.99	31878.10
449.17	32154.28
449.36	32318.12
449.54	33493.07
449.73	33888.62
449.91	34459.71
450.10	35555.08
450.28	35541.03
450.46	35321.02
450.65	35576.14
450.83	35309.32
451.02	34749.93
451.20	34110.97
451.39	34181.18
451.57	33935.43
451.76	34007.98
451.94	34185.86
452.13	32924.32
452.31	32147.26
452.49	30036.09
452.68	30560.37
452.86	30403.56
453.05	30937.20
453.23	32165.98
453.42	33029.64
453.60	33495.41
453.78	33614.77
453.97	33305.82
454.15	33273.06
454.34	32634.09
454.52	32865.80
454.70	32032.57
454.89	32601.32
455.07	32685.58
455.26	33230.93
455.44	34143.74
455.62	34738.23
455.81	35328.05
455.99	35101.01
456.17	34579.07
456.36	34801.43
456.54	35615.93
456.73	35627.63
456.91	36177.66
457.09	36315.75
457.28	37277.71
457.46	35718.92
457.64	35349.11
457.83	34342.68
458.01	33502.43
458.19	34206.93
458.38	34281.83
458.56	35655.72
458.74	35510.61
458.93	34911.43
459.11	34710.14
459.29	35082.29
459.48	34787.38
459.66	34604.82
459.84	35257.83
460.03	35222.72
460.21	35192.30
460.39	35969.35
460.57	36224.47
460.76	36680.88
460.94	36870.46
461.12	36163.62
461.31	36378.95
461.49	36343.84
461.67	36290.01
461.85	37350.27
462.04	37118.56
462.22	37771.57
462.40	37207.50
462.59	36636.41
462.77	37329.20
462.95	36886.84
463.13	36095.74
463.32	36348.52
463.50	36341.50
463.68	36123.83
463.86	36046.59
464.05	35452.09
464.23	34834.19
464.41	34714.83
464.59	33577.33
464.78	36121.49
464.96	35772.75
465.14	34981.65
465.32	36285.33
465.50	37434.53
465.69	37504.74
465.87	37027.28
466.05	35770.41
466.23	34134.37
466.41	33081.13
466.60	34370.77
466.78	34316.93
466.96	34801.43
467.14	35538.69
467.32	35901.48
467.51	36067.66
467.69	33991.60
467.87	35253.15
468.05	35948.29
468.23	35702.53
468.41	36105.10
468.60	35819.56
468.78	35896.80
468.96	35400.60
469.14	36423.42
469.32	36844.71
469.50	35290.60
469.69	35541.03
469.87	34738.23
470.05	34602.48
470.23	34796.74
470.41	34834.19
470.59	35248.47
470.77	35496.56
470.95	36278.30
471.14	36694.92
471.32	36385.97
471.50	38260.74
471.68	38972.26
471.86	38712.46
472.04	39309.30
472.22	39405.26
472.40	37261.33
472.58	36933.65
472.77	36790.88
472.95	37427.51
473.13	38132.01
473.31	36809.61
473.49	37865.19
473.67	38307.55
473.85	38670.33
474.03	39622.93
474.21	39536.33
474.39	39999.76
474.57	40112.10
474.75	40156.57
474.93	39908.47
475.12	38972.26
475.30	38749.91
475.48	38944.17
475.66	39227.38
475.84	38789.70
476.02	39077.58
476.20	38185.84
476.38	38979.28
476.56	40107.42
476.74	40341.47
476.92	40643.40
477.10	41698.98
477.28	42490.09
477.46	42497.11
477.64	42939.47
477.82	43232.04
478.00	42684.35
478.18	42513.49
478.36	42344.97
478.54	42515.83
478.72	42773.29
478.90	43796.10
479.08	44690.19
479.26	45015.52
479.44	45270.64
479.62	45006.16
479.80	44568.48
479.98	44884.45
480.16	45158.30
480.34	45010.84
480.52	45268.30
480.70	45390.01
480.88	45366.60
481.06	46387.08
481.24	46461.97
481.41	47246.05
481.59	48189.29
481.77	47697.78
481.95	47367.76
482.13	46639.86
482.31	46710.07
482.49	47882.68
482.67	47482.45
482.85	47882.68
483.03	48533.35
483.21	48968.69
483.39	48762.72
483.57	47866.30
483.74	47452.02
483.92	47873.32
484.10	48095.67
484.28	49177.00
484.46	49282.32
484.64	49766.81
484.82	49137.21
485.00	48069.92
485.18	47650.97
485.35	46312.18
485.53	43419.28
485.71	39625.27
485.89	39288.23
486.07	40687.87
486.25	44189.31
486.43	46780.29
486.61	47313.93
486.78	47091.58
486.96	47405.21
487.14	49013.16
487.32	49745.75
487.50	51257.73
487.68	51987.98
487.85	52114.37
488.03	52240.76
488.21	51681.37
488.39	50934.74
488.57	50368.33
488.75	50284.07
488.92	50925.38
489.10	53427.41
489.28	54408.09
489.46	55189.83
489.64	54871.52
489.81	54967.48
489.99	54504.06
490.17	54759.17
490.35	55213.24
490.53	54719.38
490.70	54253.62
490.88	54178.72
491.06	55110.25
491.24	55201.53
491.41	54307.45
491.59	52818.87
491.77	51721.16
491.95	52870.36
492.13	54120.21
492.30	55206.22
492.48	55854.54
492.66	56278.18
492.84	56460.74
493.01	55985.61
493.19	55601.77
493.37	55213.24
493.54	55040.04
493.72	55667.30
493.90	56442.02
494.08	57038.86
494.25	57525.69
494.43	57766.76
494.61	58124.86
494.79	57993.79
494.96	57717.61
495.14	57425.04
495.32	56519.26
495.49	55746.88
495.67	56853.95
495.85	57935.28
496.02	58391.68
496.20	58258.27
496.38	57659.10
496.55	57935.28
496.73	58389.34
496.91	58277.00
497.09	58983.84
497.26	59103.21
497.44	58710.00
497.62	57963.37
497.79	57389.94
497.97	56245.41
498.14	56271.16
498.32	57464.83
498.50	58295.72
498.67	58937.03
498.85	58702.98
499.03	58735.74
499.20	59058.74
499.38	59075.12
499.56	58796.60
499.73	58239.55
499.91	57811.23
500.08	57469.51
500.26	56853.95
500.44	57350.15
500.61	57954.00
500.79	57689.52
500.97	57474.20
501.14	57284.61
501.32	57179.29
501.49	57195.67
501.67	57230.78
501.84	58012.52
502.02	58136.57
502.20	58546.16
502.37	58679.57
502.55	58571.91
502.72	59241.30
502.90	59524.50
503.07	59393.43
503.25	58855.11
503.43	58014.86
503.60	57394.62
503.78	56760.33
503.95	57080.98
504.13	58707.66
504.30	59358.33
504.48	59058.74
504.65	58719.36
504.83	58859.79
505.01	59484.72
505.18	59728.13
505.36	60254.75
505.53	60184.54
505.71	60622.22
505.88	60458.38
506.06	59950.48
506.23	59779.62
506.41	59208.53
506.58	59592.38
506.76	59402.80
506.93	59494.08
507.11	59196.83
507.28	59414.50
507.46	59128.95
507.63	58515.73
507.81	58284.02
507.98	58527.44
508.16	58976.82
508.33	59505.78
508.50	60001.97
508.68	60130.70
508.85	60388.16
509.03	60722.86
509.20	60626.90
509.38	59805.37
509.55	59091.51
509.73	59054.06
509.90	59564.29
510.08	59868.56
510.25	59674.30
510.42	59601.74
510.60	59484.72
510.77	59662.60
510.95	60289.86
511.12	60392.84
511.30	60713.50
511.47	61073.94
511.64	60882.02
511.82	60732.22
511.99	59882.61
512.17	59416.84
512.34	59072.78
512.51	59447.27
512.69	59501.10
512.86	59599.40
513.04	59936.44
513.21	59987.93
513.38	59594.72
513.56	59044.69
513.73	58604.67
513.90	58639.78
514.08	58831.71
514.25	59065.76
514.43	59213.21
514.60	59250.66
514.77	59498.76
514.95	59590.04
515.12	59292.79
515.29	59714.09
515.47	60200.92
515.64	60331.99
515.81	59896.65
515.99	59594.72
516.16	58068.69
516.33	55945.83
516.51	54688.96
516.68	53829.98
516.85	53528.05
517.03	53715.29
517.20	56402.23
517.37	58841.07
517.54	59440.24
517.72	59152.36
517.89	56788.42
518.06	54585.97
518.24	54857.48
518.41	56884.38
518.58	58108.48
518.75	58534.46
518.93	58588.29
519.10	58424.45
519.27	59014.27
519.45	59056.40
519.62	59945.80
519.79	60130.70
519.96	59962.18
520.14	59536.21
520.31	58590.63
520.48	58784.90
520.65	58794.26
520.83	59983.25
521.00	60100.28
521.17	59990.27
521.34	59503.44
521.52	59800.69
521.69	60378.80
521.86	60797.76
522.03	60451.36
522.20	59241.30
522.38	58316.79
522.55	58300.40
522.72	58908.94
522.89	59009.59
523.07	59290.45
523.24	59573.66
523.41	60353.05
523.58	60591.79
523.75	61113.73
523.92	60832.86
524.10	60701.79
524.27	60874.99
524.44	60636.26
524.61	60423.27
524.78	60395.18
524.96	60067.51
525.13	60250.07
525.30	60423.27
525.47	60764.99
525.64	60516.89
525.81	59964.52
525.98	58829.37
526.16	57502.28
526.33	56680.75
526.50	56509.89
526.67	56236.05
526.84	56622.24
527.01	57563.14
527.18	58277.00
527.36	59325.56
527.53	60100.28
527.70	60210.28
527.87	59594.72
528.04	59213.21
528.21	59877.93
528.38	60467.74
528.55	60846.91
528.72	61151.18
528.89	61340.76
529.07	60968.61
529.24	60526.25
529.41	60102.62
529.58	59381.73
529.75	59416.84
529.92	59697.70
530.09	60137.72
530.26	60542.64
530.43	61013.08
530.60	60753.29
530.77	61181.60
530.94	61329.06
531.11	60746.26
531.28	60362.42
531.46	60280.50
531.63	60395.18
531.80	60460.72
531.97	59732.81
532.14	59255.34
532.31	58438.50
532.48	57722.29
532.65	57682.50
532.82	58447.86
532.99	59480.03
533.16	59887.29
533.33	60456.04
533.50	60093.25
533.67	59320.88
533.84	59192.15
534.01	59306.83
534.18	59636.85
534.35	59676.64
534.52	59576.00
534.69	59852.18
534.86	60163.47
535.03	60292.20
535.20	60753.29
535.37	61013.08
535.54	61085.64
535.71	61038.83
535.88	60516.89
536.05	59814.73
536.22	59437.90
536.38	59288.11
536.55	58836.39
536.72	58216.14
536.89	58206.78
537.06	59035.33
537.23	59758.56
537.40	59985.59
537.57	60027.72
537.74	59707.07
537.91	59690.68
538.08	59749.20
538.25	59929.42
538.42	59723.45
538.59	59728.13
538.75	59075.12
538.92	59049.38
539.09	58820.00
539.26	58735.74
539.43	58344.87
539.60	58529.78
539.77	58508.71
539.94	58429.13
540.11	57970.39
540.28	57469.51
540.44	57682.50
540.61	57687.18
540.78	57855.70
540.95	58213.80
541.12	58665.53
541.29	58918.31
541.46	59152.36
541.62	59276.41
541.79	59278.75
541.96	58681.91
542.13	58546.16
542.30	58831.71
542.47	58944.05
542.63	58639.78
542.80	58569.57
542.97	58644.46
543.14	58621.06
543.31	58468.92
543.48	58878.52
543.64	59931.76
543.81	60168.15
543.98	59913.03
544.15	58951.07
544.32	58721.70
544.48	58674.89
544.65	59367.69
544.82	59320.88
544.99	59196.83
545.16	58784.90
545.32	58422.11
545.49	59267.05
545.66	59650.89
545.83	59241.30
546.00	58960.44
546.16	58623.40
546.33	58749.79
546.50	58735.74
546.67	59398.12
546.83	58681.91
547.00	58824.68
547.17	58082.73
547.34	57591.22
547.50	57441.43
547.67	58012.52
547.84	58007.84
548.00	58298.06
548.17	58859.79
548.34	58855.11
548.51	58763.83
548.67	58883.20
548.84	58670.21
549.01	58494.67
549.18	58607.01
549.34	58688.93
549.51	58588.29
549.68	58691.27
549.84	58277.00
550.01	58178.70
550.18	57972.73
550.34	58085.07
550.51	58291.04
550.68	58216.14
550.84	57677.82
551.01	57773.78
551.18	57879.11
551.34	58206.78
551.51	58422.11
551.68	58429.13
551.84	58784.90
552.01	58499.35
552.18	58316.79
552.34	57539.73
552.51	57242.48
552.68	57326.74
552.84	57731.65
553.01	57879.11
553.18	57804.21
553.34	57907.19
553.51	58028.90
553.67	58230.19
553.84	58291.04
554.01	58267.64
554.17	58007.84
554.34	58005.50
554.51	58454.88
554.67	58445.52
554.84	58298.06
555.00	58103.80
555.17	57865.06
555.33	57815.91
555.50	57712.93
555.67	57928.26
555.83	57694.21
556.00	57293.97
556.16	57394.62
556.33	56968.64
556.50	56788.42
556.66	56907.79
556.83	56563.73
556.99	56605.86
557.16	56725.22
557.32	57048.22
557.49	57525.69
557.65	57207.37
557.82	57312.70
557.98	57062.26
558.15	56493.51
558.32	56020.72
558.48	54967.48
558.65	55405.16
558.81	55360.69
558.98	55924.76
559.14	56123.71
559.31	56320.31
559.47	56039.45
559.64	55969.23
559.80	55550.27
559.97	55711.77
560.13	55952.85
560.30	56968.64
560.46	57352.49
560.63	57427.38
560.79	57682.50
560.96	57205.03
561.12	55992.64
561.29	55126.64
561.45	55210.90
561.61	55660.28
561.78	56191.58
561.94	56243.07
562.11	55910.72
562.27	55870.93
562.44	56259.46
562.60	56423.29
562.77	56900.76
562.93	56580.11
563.10	56472.45
563.26	56023.06
563.42	56076.90
563.59	55894.33
563.75	55569.00
563.92	55824.12
564.08	55842.84
564.24	55994.98
564.41	56315.63
564.57	55828.80
564.74	56004.34
564.90	55594.74
565.07	55384.10
565.23	54983.86
565.39	54569.59
565.56	54482.99
565.72	54066.38
565.88	54396.39
566.05	54471.29
566.21	55119.62
566.38	54878.54
566.54	55033.02
566.70	55526.87
566.87	55697.73
567.03	55643.90
567.19	56107.32
567.36	55627.51
567.52	55686.03
567.68	55210.90
567.85	54630.44
568.01	54206.81
568.17	53806.58
568.34	54038.29
568.50	53790.19
568.66	54085.10
568.83	54234.89
568.99	54323.83
569.15	54768.54
569.32	54539.16
569.48	54101.48
569.64	54010.20
569.81	53902.54
569.97	53703.59
570.13	53497.62
570.30	53308.04
570.46	52648.01
570.62	52467.79
570.78	51868.61
570.95	52580.13
571.11	53146.54
571.27	53268.25
571.43	53340.81
571.60	53881.47
571.76	53874.45
571.92	54150.63
572.09	54611.72
572.25	54365.96
572.41	54417.46
572.57	53970.41
572.74	54419.80
572.90	53492.94
573.06	53984.46
573.22	54014.88
573.38	53698.91
573.55	53607.63
573.71	54040.63
573.87	53698.91
574.03	53490.60
574.20	53764.45
574.36	53106.76
574.52	53017.82
574.68	52999.09
574.84	52804.83
575.01	52498.22
575.17	51877.97
575.33	52137.77
575.49	52741.63
575.65	52706.52
575.82	52240.76
575.98	52224.37
576.14	52516.94
576.30	52921.85
576.46	52781.42
576.62	52645.67
576.79	52790.78
576.95	52182.24
577.11	52268.84
577.27	52622.26
577.43	52575.45
577.59	51966.91
577.75	51562.00
577.92	51295.18
578.08	50827.07
578.24	51173.47
578.40	51356.03
578.56	51377.10
578.72	51442.63
578.88	51676.69
579.04	51929.47
579.21	51817.12
579.37	52051.17
579.53	52126.07
579.69	52116.71
579.85	52217.35
580.01	52116.71
580.17	51583.07
580.33	51529.23
580.49	51405.19
580.65	51896.70
580.82	51934.15
580.98	51819.46
581.14	52023.09
581.30	52048.83
581.46	51735.20
581.62	52074.58
581.78	51997.34
581.94	52388.21
582.10	52137.77
582.26	52357.78
582.42	52259.48
582.58	52388.21
582.74	52285.23
582.90	52236.08
583.06	52072.24
583.22	51814.78
583.38	51807.76
583.54	51777.33
583.70	51679.03
583.86	51697.75
584.02	51842.87
584.18	51784.35
584.34	51489.45
584.50	51625.20
584.66	51171.13
584.82	51079.85
584.98	50780.26
585.14	50358.97
585.30	49808.94
585.46	49322.11
585.62	49205.08
585.78	49734.04
585.94	49638.08
586.10	50115.55
586.26	50312.16
586.42	50595.36
586.58	50965.17
586.74	50621.11
586.90	50646.85
587.06	50600.04
587.22	50443.23
587.38	50237.26
587.54	49825.32
587.70	49593.61
587.86	49249.55
588.02	49265.94
588.18	48629.31
588.34	48053.54
588.49	45507.04
588.65	43084.58
588.81	43058.84
588.97	43625.25
589.13	43241.40
589.29	42567.32
589.45	43899.09
589.61	45319.79
589.77	46202.18
589.93	47540.96
590.08	47742.25
590.24	48343.77
590.40	48409.30
590.56	48605.91
590.72	48119.07
590.88	47360.74
591.04	47489.47
591.20	47337.33
591.35	47482.45
591.51	47952.90
591.67	47632.24
591.83	47536.28
591.99	47477.77
592.15	47985.66
592.31	47805.44
592.46	47615.86
592.62	47765.65
592.78	47320.95
592.94	47276.48
593.10	47449.68
593.26	47367.76
593.41	48217.38
593.57	47587.77
593.73	47217.97
593.89	47065.83
594.05	46759.22
594.20	46284.09
594.36	46248.99
594.52	45755.13
594.68	45757.47
594.84	45921.31
594.99	46794.33
595.15	46628.15
595.31	46447.93
595.47	46845.82
595.62	47323.29
595.78	47035.41
595.94	47395.85
596.10	47337.33
596.25	47056.47
596.41	46747.52
596.57	45986.85
596.73	46813.05
596.88	46707.73
597.04	46742.84
597.20	46403.46
597.36	45881.52
597.51	45907.27
597.67	46089.83
597.83	46410.48
597.99	46110.89
598.14	46012.59
598.30	45186.38
598.46	45614.70
598.61	45797.26
598.77	45265.96
598.93	46043.02
599.09	46085.15
599.24	46260.69
599.40	45734.07
599.56	46103.87
599.71	46026.63
599.87	46054.72
600.03	45930.67
600.18	45481.29
600.34	45219.15
600.50	45074.04
600.65	45174.68
600.81	45198.09
600.97	45059.99
601.12	45170.00
601.28	44849.35
601.44	44662.10
601.59	44320.38
601.75	44011.43
601.91	44023.14
602.06	44065.27
602.22	44369.54
602.37	44524.01
602.53	44371.88
602.69	45228.51
602.84	45195.74
603.00	45329.16
603.16	45535.12
603.31	45755.13
603.47	45661.51
603.62	45315.11
603.78	45375.97
603.94	44980.42
604.09	45212.13
604.25	44657.42
604.40	44690.19
604.56	44713.59
604.71	45280.00
604.87	44626.99
605.03	43945.90
605.18	44165.91
605.34	44100.37
605.49	43753.97
605.65	44245.49
605.80	43835.89
605.96	43971.64
606.12	43438.00
606.27	43496.52
606.43	43274.16
606.58	44500.61
606.74	43971.64
606.89	44184.63
607.05	44444.43
607.20	44231.44
607.36	43718.87
607.51	42946.49
607.67	42911.38
607.82	42735.84
607.98	42782.65
608.13	42351.99
608.29	42616.47
608.44	42564.98
608.60	42377.74
608.75	42326.25
608.91	42319.23
609.06	42595.41
609.22	42850.53
609.37	42625.84
609.53	42682.01
609.68	41804.31
609.84	41294.07
609.99	41074.06
610.15	40966.40
610.30	41411.10
610.46	42050.06
610.61	41935.38
610.76	42078.15
610.92	42550.94
611.07	42848.19
611.23	42513.49
611.38	42387.10
611.54	41951.76
611.69	41497.70
611.84	40582.55
612.00	40425.73
612.15	39983.37
612.31	40680.85
612.46	41050.66
612.62	41081.08
612.77	41127.89
612.92	41748.14
613.08	40517.01
613.23	40264.24
613.39	38843.53
613.54	39159.50
613.69	38876.30
613.85	39452.07
614.00	39541.01
614.15	40151.89
614.31	39917.84
614.46	40137.85
614.62	40046.57
614.77	40201.04
614.92	39894.43
615.08	39936.56
615.23	39615.91
615.38	39489.52
615.54	38848.21
615.69	38022.00
615.84	36830.67
616.00	37055.36
616.15	37420.48
616.30	37336.23
616.46	37525.81
616.61	37380.70
616.76	37560.92
616.92	37631.13
617.07	38630.54
617.22	38181.16
617.37	38359.04
617.53	38801.40
617.68	39112.69
617.83	38878.64
617.99	39189.93
618.14	38780.34
618.29	38609.48
618.45	38604.80
618.60	37790.29
618.75	37207.50
618.90	37586.66
619.06	37710.71
619.21	38139.03
619.36	38815.44
619.51	37862.85
619.67	37902.64
619.82	37673.26
619.97	38134.35
620.12	37792.63
620.28	37804.33
620.43	38000.94
620.58	38548.62
620.73	37680.28
620.89	37724.75
621.04	37638.15
621.19	36964.08
621.34	37064.72
621.49	36561.51
621.65	36472.57
621.80	36556.83
621.95	36732.37
622.10	37085.79
622.25	36788.54
622.41	36680.88
622.56	35913.18
622.71	35763.39
622.86	35335.07
623.01	35648.70
623.16	35997.44
623.32	35896.80
623.47	36091.06
623.62	35793.81
623.77	35456.78
623.92	35374.86
624.07	34771.00
624.23	34801.43
624.38	34602.48
624.53	34838.87
624.68	34710.14
624.83	34361.40
624.98	34312.25
625.13	33865.21
625.29	33982.24
625.44	34110.97
625.59	33797.34
625.74	34230.33
625.89	34487.79
626.04	34464.39
626.19	34169.48
626.34	34464.39
626.49	34518.22
626.65	34431.62
626.80	34614.18
626.95	34380.13
627.10	33869.89
627.25	33261.35
627.40	32393.01
627.55	31756.39
627.70	31391.26
627.85	31861.71
628.00	31880.44
628.15	32271.31
628.30	33170.07
628.45	32975.81
628.60	32648.13
628.76	32629.41
628.91	32884.53
629.06	32746.44
629.21	32299.39
629.36	32554.51
629.51	31688.51
629.66	31510.63
629.81	31637.02
629.96	31594.89
630.11	31936.61
630.26	31941.29
630.41	32210.45
630.56	32119.17
630.71	32404.72
630.86	31714.26
631.01	31852.35
631.16	31592.55
631.31	31164.23
631.46	30883.37
631.61	31197.00
631.76	31267.22
631.91	31335.09
632.06	31772.77
632.21	31988.10
632.36	32393.01
632.51	31920.23
632.66	31861.71
632.81	31716.60
632.96	31419.35
633.10	31400.63
633.25	31246.15
633.40	30904.43
633.55	31189.98
633.70	31077.63
633.85	31140.83
634.00	31281.26
634.15	30852.94
634.30	31054.23
634.45	31189.98
634.60	31239.13
634.75	31311.69
634.90	31222.75
635.05	31215.72
635.19	30946.56
635.34	31096.36
635.49	30808.47
635.64	30906.77
635.79	30618.89
635.94	30316.96
636.09	30354.41
636.24	30555.69
636.39	30316.96
636.53	30565.06
636.68	30649.32
636.83	30656.34
636.98	30675.06
637.13	30738.26
637.28	31372.54
637.43	31058.91
637.57	30817.83
637.72	30328.66
637.87	30501.86
638.02	30452.71
638.17	30600.16
638.32	30513.56
638.46	30445.69
638.61	30417.60
638.76	30129.72
638.91	29724.80
639.06	29682.67
639.20	29659.27
639.35	29345.64
639.50	29118.60
639.65	29266.06
639.80	29352.66
639.94	29837.15
640.09	29380.74
640.24	29415.85
640.39	28966.47
640.54	28519.43
640.68	28961.79
640.83	29013.28
640.98	28367.29
641.13	28304.10
641.27	28964.13
641.42	28594.32
641.57	28306.44
641.72	28603.69
641.86	28254.95
642.01	28538.15
642.16	28858.81
642.31	28957.11
642.45	29067.11
642.60	28500.70
642.75	28533.47
642.90	28166.01
643.04	28238.56
643.19	28250.27
643.34	28004.51
643.48	27946.00
643.63	27721.30
643.78	27995.15
643.93	28313.46
644.07	28353.25
644.22	28580.28
644.37	27999.83
644.51	27850.03
644.66	28072.39
644.81	27545.76
644.95	27627.68
645.10	27522.36
645.25	27438.10
645.39	27309.37
645.54	26988.72
645.69	27204.05
645.83	26855.31
645.98	26441.03
646.13	26572.10
646.27	26874.03
646.42	26431.67
646.57	26689.13
646.71	26443.37
646.86	26352.09
647.00	26555.72
647.15	26335.71
647.30	26324.01
647.44	25888.67
647.59	25933.14
647.74	25858.24
647.88	25656.95
648.03	26052.50
648.17	25933.14
648.32	25841.85
648.47	26017.40
648.61	25685.04
648.76	25874.62
648.90	25359.70
649.05	24891.60
649.20	23929.64
649.34	23805.59
649.49	24301.78
649.63	24496.05
649.78	25001.60
649.92	25493.12
650.07	25645.25
650.21	25724.83
650.36	26094.63
650.51	26022.08
650.65	26066.55
650.80	26113.36
650.94	25219.27
651.09	24992.24
651.23	24634.14
651.38	24219.86
651.52	24479.66
651.67	24514.77
651.81	24898.62
651.96	25123.31
652.10	24744.14
652.25	25025.01
652.39	25336.30
652.54	25640.57
652.68	25317.57
652.83	24716.06
652.97	24936.07
653.12	25076.50
653.26	24833.08
653.41	25345.66
653.55	25111.61
653.70	25104.59
653.84	25046.07
653.99	24802.66
654.13	24161.35
654.27	23843.04
654.42	23529.41
654.56	23351.52
654.71	23618.35
654.85	23335.14
655.00	23398.34
655.14	23157.26
655.29	22773.41
655.43	22300.62
655.57	21261.43
655.72	20133.29
655.86	18647.05
656.01	17570.40
656.15	17867.65
656.30	18829.61
656.44	19740.08
656.58	20847.15
656.73	21514.20
656.87	21748.26
657.01	22178.92
657.16	22679.79
657.30	22728.94
657.45	23063.64
657.59	23293.01
657.73	23012.15
657.88	23445.15
658.02	23384.29
658.16	23016.83
658.31	23101.09
658.45	23016.83
658.60	23044.91
658.74	23061.30
658.88	22953.63
659.03	22515.95
659.17	22347.44
659.31	22405.95
659.46	22574.47
659.60	22939.59
659.74	22874.06
659.89	23061.30
660.03	22651.70
660.17	23077.68
660.32	22515.95
660.46	22934.91
660.60	22604.89
660.74	22654.05
660.89	22384.88
661.03	22445.74
661.17	22572.13
661.32	22480.85
661.46	22787.46
661.60	22382.54
661.74	22483.19
661.89	22820.22
662.03	22735.96
662.17	22441.06
662.31	22567.45
662.46	22384.88
662.60	22422.33
662.74	21827.84
662.88	22026.78
663.03	21441.65
663.17	21577.40
663.31	21546.97
663.45	21713.15
663.60	21668.68
663.74	21280.15
663.88	21816.13
664.02	21032.05
664.17	21537.61
664.31	21179.51
664.45	21561.02
664.59	21692.08
664.73	21568.04
664.88	21612.51
665.02	21535.27
665.16	21813.79
665.30	21460.37
665.44	21160.78
665.59	21158.44
665.73	21088.23
665.87	20940.77
666.01	20416.49
666.15	20414.15
666.29	20683.31
666.44	20631.82
666.58	20594.37
666.72	20706.72
666.86	20950.14
667.00	20718.42
667.14	20372.02
667.28	20526.50
667.43	20376.70
667.57	20037.33
667.71	20002.22
667.85	20407.13
667.99	20332.23
668.13	20430.54
668.27	19946.05
668.41	20215.21
668.56	20226.91
668.70	19906.26
668.84	20004.56
668.98	20025.62
669.12	20093.50
669.26	20070.09
669.40	19550.49
669.54	19578.58
669.68	19814.98
669.82	19536.45
669.96	19428.79
670.10	19522.41
670.25	19517.73
670.39	19131.54
670.53	19330.48
670.67	18963.02
670.81	19328.14
670.95	19211.12
671.09	19274.31
671.23	18682.16
671.37	18658.75
671.51	18567.47
671.65	18647.05
671.79	18684.50
671.93	18417.68
672.07	18803.86
672.21	18932.59
672.35	18604.92
672.49	18518.32
672.63	18766.42
672.77	18427.04
672.91	18347.46
673.05	18328.74
673.19	18293.63
673.33	18071.28
673.47	18127.45
673.61	18120.43
673.75	17958.93
673.89	17907.44
674.03	18150.85
674.17	18260.86
674.31	17970.63
674.45	18122.77
674.59	18005.74
674.73	17860.63
674.87	17371.46
675.01	17465.08
675.15	17504.87
675.29	17481.46
675.43	17254.43
675.56	17387.84
675.70	17554.02
675.84	17399.54
675.98	16959.52
676.12	17165.49
676.26	17181.87
676.40	17160.81
676.54	17106.98
676.68	17015.69
676.82	16648.23
676.96	16926.75
677.10	16547.59
677.23	16725.47
677.37	16648.23
677.51	16863.56
677.65	16809.73
677.79	16435.24
677.93	16196.51
678.07	16313.53
678.21	16093.52
678.34	15906.28
678.48	15838.41
678.62	15988.20
678.76	15917.98
678.90	15946.07
679.04	15901.60
679.18	15662.86
679.31	15695.63
679.45	15847.77
679.59	15658.18
679.73	15634.78
679.87	15641.80
680.00	15658.18
680.14	15325.83
680.28	15122.20
680.42	15075.39
680.56	14885.81
680.70	15082.41
680.83	15204.12
680.97	14949.00
681.11	14710.27
681.25	14677.50
681.39	14841.34
681.52	14848.36
681.66	14796.87
681.80	14626.01
681.94	14733.67
682.07	14881.13
682.21	14665.80
682.35	14541.75
682.49	14464.51
682.62	14349.82
682.76	14258.54
682.90	14115.77
683.04	14043.21
683.17	14054.92
683.31	13928.53
683.45	13937.89
683.59	13944.91
683.72	13554.04
683.86	13359.78
684.00	13202.96
684.13	13453.40
684.27	13439.36
684.41	13380.84
684.55	13448.72
684.68	13486.17
684.82	13483.83
684.96	13277.86
685.09	13202.96
685.23	12861.24
685.37	13046.15
685.50	12870.61
685.64	12795.71
685.78	12662.30
685.91	12671.66
686.05	12725.49
686.19	12437.61
686.32	11634.80
686.46	10490.28
686.60	9057.87
686.73	8297.20
686.87	8056.12
687.01	7920.37
687.14	7990.59
687.28	8229.32
687.42	8423.59
687.55	9029.79
687.69	9717.90
687.82	10036.22
687.96	10434.11
688.10	10328.78
688.23	10445.81
688.37	10094.73
688.50	10153.24
688.64	9881.74
688.78	9556.41
688.91	9678.12
689.05	9558.75
689.18	9383.21
689.32	9446.40
689.46	9493.21
689.59	9776.42
689.73	9750.67
689.86	9530.66
690.00	9565.77
690.13	9954.30
690.27	9415.98
690.41	9668.75
690.54	9760.03
690.68	9827.91
690.81	9975.36
690.95	9977.70
691.08	9682.80
691.22	9968.34
691.35	9659.39
691.49	9956.64
691.62	9706.20
691.76	9898.13
691.89	9860.68
692.03	9834.93
692.16	9668.75
692.30	9650.03
692.43	9731.95
692.57	9544.70
692.70	9430.02
692.84	9415.98
692.97	9163.20
693.11	9465.13
693.24	9490.87
693.38	9334.06
693.51	9233.41
693.65	9149.15
693.78	9004.04
693.92	8952.55
694.05	9050.85
694.19	8863.61
694.32	8821.48
694.45	8891.70
694.59	8617.85
694.72	8826.16
694.86	8840.20
694.99	8819.14
695.13	8784.03
695.26	8805.10
695.39	8669.34
695.53	8521.89
695.66	8557.00
695.80	8627.21
695.93	8601.47
696.07	8631.90
696.20	8547.64
696.33	8889.35
696.47	8924.46
696.60	8842.54
696.73	9015.74
696.87	8924.46
697.00	8800.41
697.14	8788.71
697.27	8491.46
697.40	8561.68
697.54	8318.26
697.67	8013.99
697.80	8121.66
697.94	8028.04
698.07	7896.97
698.21	8025.70
698.34	8065.49
698.47	8035.06
698.61	7655.89
698.74	7616.10
698.87	7627.81
699.01	7754.19
699.14	7714.41
699.27	7754.19
699.40	7882.92
699.54	7599.72
699.67	7384.39
699.80	7515.46
699.94	7674.62
700.07	7229.91
700.20	7122.25
700.34	7037.99
700.47	7143.32
700.60	7162.04
700.73	7047.35
700.87	7143.32
701.00	7084.80
701.13	7126.93
701.26	6998.20
701.40	6855.43
701.53	6750.10
701.66	6876.49
701.79	6745.42
701.93	6902.24
702.06	6916.28
702.19	6834.36
702.32	6855.43
702.46	6626.06
702.59	6724.36
702.72	6787.55
702.85	6729.04
702.99	6799.26
703.12	6942.03
703.25	6684.57
703.38	6579.25
703.51	6562.86
703.65	6480.94
703.78	6553.50
703.91	6399.02
704.04	6672.87
704.17	6448.18
704.31	6265.61
704.44	6396.68
704.57	6551.16
704.70	6473.92
704.83	6377.96
704.96	6459.88
705.10	6211.78
705.23	6162.63
>>>>>End Processed Spectral Data<<<<<
