SpectraSuite Data File
++++++++++++++++++++++++++++++++++++
Date: Mon Oct 07 14:53:11 GMT-05:00 2013
User: price-jones
Dark Spectrum Present: No
Reference Spectrum Present: No
Number of Sampled Component Spectra: 1
Spectrometers: USB2+H05261
Integration Time (usec): 100000 (USB2+H05261)
Spectra Averaged: 1 (USB2+H05261)
Boxcar Smoothing: 0 (USB2+H05261)
Correct for Electrical Dark: No (USB2+H05261)
Strobe/Lamp Enabled: No (USB2+H05261)
Correct for Detector Non-linearity: No (USB2+H05261)
Correct for Stray Light: No (USB2+H05261)
Number of Pixels in Processed Spectrum: 2048
>>>>>Begin Processed Spectral Data<<<<<
365.73	0.00
365.92	0.00
366.12	0.00
366.32	0.00
366.52	0.00
366.72	0.00
366.91	0.00
367.11	0.00
367.31	0.00
367.51	0.00
367.70	0.00
367.90	0.00
368.10	0.00
368.30	0.00
368.49	0.00
368.69	0.00
368.89	0.00
369.09	0.00
369.28	0.00
369.48	0.00
369.68	0.00
369.87	0.00
370.07	0.00
370.27	0.00
370.47	1121.12
370.66	5027.47
370.86	5757.72
371.06	6408.39
371.25	6504.35
371.45	5832.62
371.65	5291.95
371.84	4985.34
372.04	5109.39
372.24	5668.78
372.44	5963.68
372.63	5806.87
372.83	5408.98
373.03	4868.31
373.22	4461.06
373.42	4844.91
373.62	5411.32
373.81	5870.06
374.01	5727.29
374.21	5259.18
374.40	4961.94
374.60	5081.30
374.79	5881.77
374.99	6745.42
375.19	7206.51
375.38	6801.60
375.58	6614.35
375.78	6483.28
375.97	6700.95
376.17	6920.96
376.37	7117.57
376.56	7356.30
376.76	7723.77
376.95	8276.13
377.15	8451.67
377.35	8999.36
377.54	8931.48
377.74	9418.32
377.93	9432.36
378.13	8943.19
378.33	8540.61
378.52	8081.87
378.72	7786.96
378.91	7407.80
379.11	7307.15
379.31	7330.56
379.50	7073.10
379.70	7712.07
379.89	8634.24
380.09	9025.11
380.28	9439.38
380.48	9357.46
380.68	8823.82
380.87	8905.74
381.07	8037.40
381.26	7571.63
381.46	7176.08
381.65	6794.58
381.85	6853.09
382.04	6195.40
382.24	5959.00
382.43	5717.93
382.63	5537.71
382.83	5542.39
383.02	5706.23
383.22	5692.18
383.41	5774.10
383.61	5996.45
383.80	7012.24
384.00	7625.47
384.19	8798.07
384.39	9109.36
384.58	9102.34
384.78	8769.99
384.97	8704.45
385.17	8301.88
385.36	8058.46
385.56	7562.27
385.75	7934.42
385.95	8779.35
386.14	9331.72
386.34	9317.67
386.53	8847.22
386.72	8248.05
386.92	8463.38
387.11	8882.33
387.31	9184.26
387.50	9289.59
387.70	8910.42
387.89	8652.96
388.09	8870.63
388.28	8805.10
388.48	9177.24
388.67	9760.03
388.86	10799.23
389.06	11382.03
389.25	12063.12
389.45	12189.51
389.64	11882.90
389.84	11747.15
390.03	11894.60
390.22	11735.45
390.42	12077.16
390.61	12931.46
390.81	13809.16
391.00	14277.27
391.19	13640.64
391.39	13399.57
391.58	12650.60
391.78	11967.16
391.97	11545.86
392.16	10640.08
392.36	9533.00
392.55	7665.25
392.75	6038.58
392.94	5071.94
393.13	5214.71
393.33	6392.00
393.52	7911.01
393.71	9392.57
393.91	10595.61
394.10	11466.28
394.29	12760.60
394.49	13727.24
394.68	14876.44
394.88	14640.05
395.07	15119.86
395.26	14817.93
395.46	14221.10
395.65	13462.76
395.84	11861.84
396.04	9870.04
396.23	8077.19
396.42	6768.83
396.62	6551.16
396.81	7974.21
397.00	10141.54
397.19	12482.08
397.39	14939.64
397.58	16776.96
397.77	17881.69
397.97	18331.08
398.16	18633.00
398.35	19267.29
398.55	19789.23
398.74	20397.77
398.93	20816.72
399.12	20259.68
399.32	19922.64
399.51	20255.00
399.70	21628.89
399.90	21252.06
400.09	21137.38
400.28	21001.63
400.47	21163.12
400.67	22588.51
400.86	22927.89
401.05	22707.88
401.24	22602.55
401.44	23007.47
401.63	23342.16
401.82	23470.89
402.01	23250.88
402.21	23770.48
402.40	23988.15
402.59	23033.21
402.78	22118.06
402.97	21226.32
403.17	22125.08
403.36	23573.88
403.55	24245.61
403.74	25113.95
403.93	23440.47
404.13	22148.49
404.32	21654.64
404.51	22586.17
404.70	24182.42
404.89	24166.03
405.09	23651.11
405.28	22824.90
405.47	23321.10
405.66	23005.13
405.85	22408.29
406.05	22146.15
406.24	22436.38
406.43	23218.11
406.62	23931.98
406.81	24196.46
407.00	23246.20
407.20	22871.72
407.39	22668.09
407.58	24292.42
407.77	24943.09
407.96	25886.32
408.15	26054.84
408.34	26239.75
408.54	27314.05
408.73	27101.06
408.92	26616.57
409.11	25986.97
409.30	24776.91
409.49	23367.91
409.68	21766.98
409.87	21198.23
410.07	23070.66
410.26	24879.89
410.45	25914.41
410.64	26450.39
410.83	27531.72
411.02	27826.63
411.21	28631.77
411.40	28596.67
411.59	28489.00
411.78	28135.58
411.98	28140.26
412.17	28507.72
412.36	27964.72
412.55	27950.68
412.74	27615.98
412.93	27049.57
413.12	27218.09
413.31	30031.41
413.50	30040.78
413.69	30913.80
413.88	29200.52
414.07	28898.59
414.26	29486.07
414.45	29834.81
414.64	30253.76
414.83	30129.72
415.02	29490.75
415.22	29191.16
415.41	30551.01
415.60	31000.40
415.79	32173.00
415.98	32753.46
416.17	32788.56
416.36	31791.50
416.55	32194.07
416.74	30639.95
416.93	29626.50
417.12	29483.73
417.31	30382.49
417.50	30520.59
417.69	31765.75
417.88	31555.10
418.07	30824.86
418.26	30827.20
418.45	31087.00
418.64	32814.31
418.83	33296.46
419.02	32371.95
419.21	32634.09
419.39	31019.12
419.58	29647.57
419.77	29996.31
419.96	31494.25
420.15	32929.00
420.34	33909.68
420.53	34883.34
420.72	35096.33
420.91	35154.85
421.10	35166.55
421.29	34284.17
421.48	33404.13
421.67	35321.02
421.86	33968.19
422.05	31281.26
422.24	28467.94
422.43	28423.47
422.61	31367.86
422.80	33656.90
422.99	33591.37
423.18	32418.76
423.37	32093.43
423.56	31875.76
423.75	32484.30
423.94	33469.66
424.13	31667.45
424.32	31564.46
424.50	31859.37
424.69	31456.80
424.88	31594.89
425.07	31407.65
425.26	31299.98
425.45	30712.51
425.64	30202.27
425.83	30749.96
426.01	32369.61
426.20	32826.01
426.39	32624.73
426.58	30188.23
426.77	27899.19
426.96	27332.78
427.15	28657.52
427.33	30572.08
427.52	31945.97
427.71	32023.21
427.90	31625.32
428.09	31211.04
428.28	30689.10
428.46	29287.12
428.65	29123.29
428.84	29823.11
429.03	30759.32
429.22	28512.41
429.40	26871.69
429.59	24364.98
429.78	21858.26
429.97	22288.92
430.16	22721.92
430.34	22141.47
430.53	22417.65
430.72	23274.29
430.91	25699.08
431.10	30663.36
431.28	35227.40
431.47	37876.89
431.66	37464.96
431.85	34307.57
432.03	31552.76
432.22	30733.57
432.41	32226.84
432.60	35360.81
432.79	36802.58
432.97	37476.66
433.16	35707.21
433.35	33617.11
433.54	29982.26
433.72	28442.19
433.91	29626.50
434.10	33088.15
434.28	34852.92
434.47	36732.37
434.66	35754.02
434.85	35044.84
435.03	34719.51
435.22	35730.62
435.41	37729.44
435.59	37713.05
435.78	38579.05
435.97	39655.70
436.16	39445.05
436.34	38653.95
436.53	38408.19
436.72	38483.09
436.90	36203.41
437.09	36282.98
437.28	35985.74
437.46	36957.06
437.65	36870.46
437.84	34265.44
438.02	31744.69
438.21	31690.85
438.40	33771.59
438.58	36397.67
438.77	36950.04
438.96	37343.25
439.14	39000.35
439.33	39274.19
439.52	40037.20
439.70	39042.48
439.89	38422.23
440.08	37647.52
440.26	37256.65
440.45	38597.77
440.63	41034.27
440.82	43124.37
441.01	41935.38
441.19	42143.69
441.38	43161.82
441.57	44154.21
441.75	44629.34
441.94	44825.94
442.12	44556.78
442.31	44917.22
442.50	44786.15
442.68	44608.27
442.87	44179.95
443.05	43702.48
443.24	44914.88
443.43	45368.94
443.61	46124.94
443.80	46490.06
443.98	43882.70
444.17	43665.03
444.35	45998.55
444.54	46698.37
444.73	46312.18
444.91	44231.44
445.10	42763.93
445.28	41294.07
445.47	41090.44
445.65	41322.16
445.84	42225.60
446.02	43370.13
446.21	43952.92
446.39	44357.83
446.58	45031.91
446.77	45151.27
446.95	45701.30
447.14	46691.35
447.32	47342.02
447.51	46674.96
447.69	44800.19
447.88	44442.09
448.06	45343.20
448.25	46043.02
448.43	46583.68
448.62	45993.87
448.80	45308.09
448.99	45591.30
449.17	46089.83
449.36	46024.29
449.54	47313.93
449.73	47894.38
449.91	48453.77
450.10	49331.47
450.28	49397.01
450.46	49352.54
450.65	49565.52
450.83	49179.34
451.02	48451.43
451.20	48243.12
451.39	48460.79
451.57	48325.04
451.76	48446.75
451.94	48013.75
452.13	47098.60
452.31	45120.85
452.49	43976.33
452.68	44093.35
452.86	44177.61
453.05	44776.79
453.23	46103.87
453.42	47105.62
453.60	47641.60
453.78	47824.17
453.97	47477.77
454.15	48278.23
454.34	46485.38
454.52	47459.04
454.70	46248.99
454.89	46710.07
455.07	46784.97
455.26	47737.57
455.44	48865.70
455.62	49509.35
455.81	49820.64
455.99	49326.79
456.17	49205.08
456.36	49350.20
456.54	49998.52
456.73	50017.25
456.91	50375.35
457.09	50784.94
457.28	51114.96
457.46	49521.05
457.64	49621.70
457.83	48484.20
458.01	47377.12
458.19	49207.42
458.38	49027.20
458.56	50211.51
458.74	49970.44
458.93	49387.64
459.11	49230.83
459.29	48942.94
459.48	49153.59
459.66	48631.65
459.84	49474.24
460.03	49839.37
460.21	49537.44
460.39	50920.70
460.57	50815.37
460.76	51154.75
460.94	51189.86
461.12	50513.44
461.31	50845.80
461.49	50995.59
461.67	50965.17
461.85	51931.81
462.04	51571.36
462.22	51819.46
462.40	51992.66
462.59	51512.85
462.77	51707.12
462.95	51704.77
463.13	51320.93
463.32	50937.08
463.50	50586.00
463.68	50890.27
463.86	51105.60
464.05	50513.44
464.23	49544.46
464.41	49663.83
464.59	49027.20
464.78	50810.69
464.96	50511.10
465.14	50178.75
465.32	51007.29
465.50	51604.13
465.69	51681.37
465.87	51533.92
466.05	50625.79
466.23	48900.81
466.41	48114.39
466.60	49401.69
466.78	49310.41
466.96	49794.90
467.14	50494.72
467.32	50848.14
467.51	50567.27
467.69	49340.83
467.87	49600.63
468.05	50389.39
468.23	50513.44
468.41	50468.97
468.60	50658.56
468.78	51035.38
468.96	50492.38
469.14	51519.87
469.32	51199.22
469.50	49872.14
469.69	50216.19
469.87	49553.82
470.05	49696.59
470.23	49116.14
470.41	49738.72
470.59	50230.24
470.77	50422.16
470.95	51033.04
471.14	51395.82
471.32	51590.09
471.50	53109.10
471.68	53518.69
471.86	53649.76
472.04	53574.86
472.22	53450.81
472.40	52144.80
472.58	51929.47
472.77	51391.14
472.95	52189.27
473.13	53118.46
473.31	52317.99
473.49	52610.56
473.67	53006.11
473.85	53209.74
474.03	54052.33
474.21	54035.95
474.39	54218.51
474.57	54443.20
474.75	54419.80
474.93	53841.68
475.12	53296.34
475.30	53539.75
475.48	53750.40
475.66	53918.92
475.84	53738.70
476.02	53495.28
476.20	53148.88
476.38	53689.55
476.56	54490.01
476.74	54695.98
476.92	55068.12
477.10	55152.38
477.28	56186.90
477.46	56107.32
477.64	56449.04
477.82	56540.32
478.00	56540.32
478.18	56081.58
478.36	56196.26
478.54	56172.86
478.72	56259.46
478.90	57265.89
479.08	57652.08
479.26	58031.24
479.44	57855.70
479.62	57752.72
479.80	57745.70
479.98	57851.02
480.16	58101.46
480.34	57628.67
480.52	58059.33
480.70	58159.97
480.88	58354.24
481.06	58609.35
481.24	59133.63
481.41	59449.61
481.59	60102.62
481.77	59540.89
481.95	59124.27
482.13	59276.41
482.31	59229.60
482.49	59643.87
482.67	59395.77
482.85	59889.63
483.03	60102.62
483.21	60343.69
483.39	60395.18
483.57	59732.81
483.74	59583.02
483.92	60055.81
484.10	60093.25
484.28	60650.30
484.46	60874.99
484.64	61235.44
484.82	60261.77
485.00	60041.76
485.18	59538.55
485.35	58798.94
485.53	56671.39
485.71	54157.66
485.89	54171.70
486.07	55615.81
486.25	57818.25
486.43	59306.83
486.61	59454.29
486.78	59512.80
486.96	59760.90
487.14	60697.11
487.32	61364.17
487.50	61902.49
487.68	62508.69
487.85	62801.25
488.03	62679.55
488.21	62438.47
488.39	62092.07
488.57	61666.09
488.75	61535.02
488.92	62431.45
489.10	63845.13
489.28	64762.62
489.46	65027.10
489.64	64860.93
489.81	64947.53
489.99	64664.32
490.17	64987.31
490.35	65059.87
490.53	64863.27
490.70	64591.76
490.88	64484.10
491.06	65293.92
491.24	65120.73
491.41	64348.35
491.59	63407.45
491.77	62822.32
491.95	63641.51
492.13	64296.86
492.30	65277.54
492.48	65535.00
492.66	65535.00
492.84	65535.00
493.01	65535.00
493.19	65535.00
493.37	65408.61
493.54	65322.01
493.72	65535.00
493.90	65535.00
494.08	65535.00
494.25	65535.00
494.43	65535.00
494.61	65535.00
494.79	65535.00
494.96	65535.00
495.14	65535.00
495.32	65535.00
495.49	65535.00
495.67	65535.00
495.85	65535.00
496.02	65535.00
496.20	65535.00
496.38	65535.00
496.55	65535.00
496.73	65535.00
496.91	65535.00
497.09	65535.00
497.26	65535.00
497.44	65535.00
497.62	65535.00
497.79	65535.00
497.97	65535.00
498.14	65535.00
498.32	65535.00
498.50	65535.00
498.67	65535.00
498.85	65535.00
499.03	65535.00
499.20	65535.00
499.38	65535.00
499.56	65535.00
499.73	65535.00
499.91	65535.00
500.08	65535.00
500.26	65535.00
500.44	65535.00
500.61	65535.00
500.79	65535.00
500.97	65535.00
501.14	65535.00
501.32	65535.00
501.49	65535.00
501.67	65535.00
501.84	65535.00
502.02	65535.00
502.20	65535.00
502.37	65535.00
502.55	65535.00
502.72	65535.00
502.90	65535.00
503.07	65535.00
503.25	65535.00
503.43	65535.00
503.60	65535.00
503.78	65535.00
503.95	65535.00
504.13	65535.00
504.30	65535.00
504.48	65535.00
504.65	65535.00
504.83	65535.00
505.01	65535.00
505.18	65535.00
505.36	65535.00
505.53	65535.00
505.71	65535.00
505.88	65535.00
506.06	65535.00
506.23	65535.00
506.41	65535.00
506.58	65535.00
506.76	65535.00
506.93	65535.00
507.11	65535.00
507.28	65535.00
507.46	65535.00
507.63	65535.00
507.81	65535.00
507.98	65535.00
508.16	65535.00
508.33	65535.00
508.50	65535.00
508.68	65535.00
508.85	65535.00
509.03	65535.00
509.20	65535.00
509.38	65535.00
509.55	65535.00
509.73	65535.00
509.90	65535.00
510.08	65535.00
510.25	65535.00
510.42	65535.00
510.60	65535.00
510.77	65535.00
510.95	65535.00
511.12	65535.00
511.30	65535.00
511.47	65535.00
511.64	65535.00
511.82	65535.00
511.99	65535.00
512.17	65535.00
512.34	65535.00
512.51	65535.00
512.69	65535.00
512.86	65535.00
513.04	65535.00
513.21	65535.00
513.38	65535.00
513.56	65535.00
513.73	65535.00
513.90	65535.00
514.08	65535.00
514.25	65535.00
514.43	65535.00
514.60	65535.00
514.77	65535.00
514.95	65535.00
515.12	65535.00
515.29	65535.00
515.47	65535.00
515.64	65535.00
515.81	65535.00
515.99	65535.00
516.16	65535.00
516.33	65535.00
516.51	65535.00
516.68	64858.59
516.85	64114.29
517.03	64835.18
517.20	65535.00
517.37	65535.00
517.54	65535.00
517.72	65535.00
517.89	65535.00
518.06	65535.00
518.24	65535.00
518.41	65535.00
518.58	65535.00
518.75	65535.00
518.93	65535.00
519.10	65535.00
519.27	65535.00
519.45	65535.00
519.62	65535.00
519.79	65535.00
519.96	65535.00
520.14	65535.00
520.31	65535.00
520.48	65535.00
520.65	65535.00
520.83	65535.00
521.00	65535.00
521.17	65535.00
521.34	65535.00
521.52	65535.00
521.69	65535.00
521.86	65535.00
522.03	65535.00
522.20	65535.00
522.38	65535.00
522.55	65535.00
522.72	65535.00
522.89	65535.00
523.07	65535.00
523.24	65535.00
523.41	65535.00
523.58	65535.00
523.75	65535.00
523.92	65535.00
524.10	65535.00
524.27	65535.00
524.44	65535.00
524.61	65535.00
524.78	65535.00
524.96	65535.00
525.13	65535.00
525.30	65535.00
525.47	65535.00
525.64	65535.00
525.81	65535.00
525.98	65535.00
526.16	65535.00
526.33	65535.00
526.50	65535.00
526.67	65535.00
526.84	65535.00
527.01	65535.00
527.18	65535.00
527.36	65535.00
527.53	65535.00
527.70	65535.00
527.87	65535.00
528.04	65535.00
528.21	65535.00
528.38	65535.00
528.55	65535.00
528.72	65535.00
528.89	65535.00
529.07	65535.00
529.24	65535.00
529.41	65535.00
529.58	65535.00
529.75	65535.00
529.92	65535.00
530.09	65535.00
530.26	65535.00
530.43	65535.00
530.60	65535.00
530.77	65535.00
530.94	65535.00
531.11	65535.00
531.28	65535.00
531.46	65535.00
531.63	65535.00
531.80	65535.00
531.97	65535.00
532.14	65535.00
532.31	65535.00
532.48	65535.00
532.65	65535.00
532.82	65535.00
532.99	65535.00
533.16	65535.00
533.33	65535.00
533.50	65535.00
533.67	65535.00
533.84	65535.00
534.01	65535.00
534.18	65535.00
534.35	65535.00
534.52	65535.00
534.69	65535.00
534.86	65535.00
535.03	65535.00
535.20	65535.00
535.37	65535.00
535.54	65535.00
535.71	65535.00
535.88	65535.00
536.05	65535.00
536.22	65535.00
536.38	65535.00
536.55	65535.00
536.72	65535.00
536.89	65535.00
537.06	65535.00
537.23	65535.00
537.40	65535.00
537.57	65535.00
537.74	65535.00
537.91	65535.00
538.08	65535.00
538.25	65535.00
538.42	65535.00
538.59	65535.00
538.75	65535.00
538.92	65535.00
539.09	65535.00
539.26	65535.00
539.43	65535.00
539.60	65535.00
539.77	65535.00
539.94	65535.00
540.11	65535.00
540.28	65535.00
540.44	65535.00
540.61	65535.00
540.78	65535.00
540.95	65535.00
541.12	65535.00
541.29	65535.00
541.46	65535.00
541.62	65535.00
541.79	65535.00
541.96	65535.00
542.13	65535.00
542.30	65535.00
542.47	65535.00
542.63	65535.00
542.80	65535.00
542.97	65535.00
543.14	65535.00
543.31	65535.00
543.48	65535.00
543.64	65535.00
543.81	65535.00
543.98	65535.00
544.15	65535.00
544.32	65535.00
544.48	65535.00
544.65	65535.00
544.82	65535.00
544.99	65535.00
545.16	65535.00
545.32	65535.00
545.49	65535.00
545.66	65535.00
545.83	65535.00
546.00	65535.00
546.16	65535.00
546.33	65535.00
546.50	65535.00
546.67	65535.00
546.83	65535.00
547.00	65535.00
547.17	65535.00
547.34	65535.00
547.50	65535.00
547.67	65535.00
547.84	65535.00
548.00	65535.00
548.17	65535.00
548.34	65535.00
548.51	65535.00
548.67	65535.00
548.84	65535.00
549.01	65535.00
549.18	65535.00
549.34	65535.00
549.51	65535.00
549.68	65535.00
549.84	65535.00
550.01	65535.00
550.18	65535.00
550.34	65535.00
550.51	65535.00
550.68	65535.00
550.84	65535.00
551.01	65535.00
551.18	65535.00
551.34	65535.00
551.51	65535.00
551.68	65535.00
551.84	65535.00
552.01	65535.00
552.18	65535.00
552.34	65535.00
552.51	65535.00
552.68	65535.00
552.84	65535.00
553.01	65535.00
553.18	65535.00
553.34	65535.00
553.51	65535.00
553.67	65535.00
553.84	65535.00
554.01	65535.00
554.17	65535.00
554.34	65535.00
554.51	65535.00
554.67	65535.00
554.84	65535.00
555.00	65535.00
555.17	65535.00
555.33	65535.00
555.50	65535.00
555.67	65535.00
555.83	65535.00
556.00	65535.00
556.16	65535.00
556.33	65535.00
556.50	65535.00
556.66	65535.00
556.83	65535.00
556.99	65535.00
557.16	65535.00
557.32	65535.00
557.49	65535.00
557.65	65535.00
557.82	65535.00
557.98	65535.00
558.15	65535.00
558.32	65535.00
558.48	65535.00
558.65	65535.00
558.81	65535.00
558.98	65535.00
559.14	65535.00
559.31	65535.00
559.47	65535.00
559.64	65535.00
559.80	65535.00
559.97	65535.00
560.13	65535.00
560.30	65535.00
560.46	65535.00
560.63	65535.00
560.79	65535.00
560.96	65535.00
561.12	65535.00
561.29	65535.00
561.45	65535.00
561.61	65535.00
561.78	65535.00
561.94	65535.00
562.11	65535.00
562.27	65535.00
562.44	65535.00
562.60	65535.00
562.77	65535.00
562.93	65535.00
563.10	65535.00
563.26	65535.00
563.42	65535.00
563.59	65535.00
563.75	65535.00
563.92	65535.00
564.08	65535.00
564.24	65535.00
564.41	65535.00
564.57	65535.00
564.74	65535.00
564.90	65535.00
565.07	65535.00
565.23	65535.00
565.39	65535.00
565.56	65535.00
565.72	65535.00
565.88	65535.00
566.05	65535.00
566.21	65535.00
566.38	65535.00
566.54	65535.00
566.70	65535.00
566.87	65535.00
567.03	65535.00
567.19	65535.00
567.36	65535.00
567.52	65535.00
567.68	65535.00
567.85	65535.00
568.01	65535.00
568.17	65535.00
568.34	65535.00
568.50	65535.00
568.66	65535.00
568.83	65535.00
568.99	65535.00
569.15	65535.00
569.32	65535.00
569.48	65535.00
569.64	65535.00
569.81	65535.00
569.97	65535.00
570.13	65535.00
570.30	65268.18
570.46	65204.98
570.62	64671.34
570.78	64573.04
570.95	64767.30
571.11	65216.69
571.27	65298.61
571.43	65535.00
571.60	65535.00
571.76	65535.00
571.92	65535.00
572.09	65535.00
572.25	65535.00
572.41	65535.00
572.57	65535.00
572.74	65535.00
572.90	65535.00
573.06	65535.00
573.22	65535.00
573.38	65535.00
573.55	65535.00
573.71	65535.00
573.87	65535.00
574.03	65535.00
574.20	65535.00
574.36	65527.98
574.52	65535.00
574.68	65502.23
574.84	64952.21
575.01	64500.48
575.17	64594.10
575.33	64921.78
575.49	65181.58
575.65	65181.58
575.82	64977.95
575.98	64652.62
576.14	65001.36
576.30	65076.26
576.46	65286.90
576.62	65165.20
576.79	65382.87
576.95	65057.53
577.11	65041.15
577.27	65036.47
577.43	65010.72
577.59	64474.74
577.75	63941.10
577.92	63730.45
578.08	63498.73
578.24	63674.27
578.40	64041.74
578.56	64006.63
578.72	64214.94
578.88	64360.05
579.04	64507.50
579.21	64704.11
579.37	64399.84
579.53	64512.19
579.69	64451.33
579.85	64760.28
580.01	64535.59
580.17	64102.59
580.33	63894.28
580.49	64336.65
580.65	64460.69
580.82	64664.32
580.98	64516.87
581.14	64390.48
581.30	64680.70
581.46	64451.33
581.62	64498.14
581.78	64633.89
581.94	64694.75
582.10	64823.48
582.26	64867.95
582.42	64800.07
582.58	64898.37
582.74	65020.08
582.90	64942.84
583.06	64828.16
583.22	64636.23
583.38	64547.29
583.54	64537.93
583.70	64385.80
583.86	64587.08
584.02	64477.08
584.18	64608.15
584.34	64437.29
584.50	64381.12
584.66	64179.83
584.82	63952.80
584.98	63891.94
585.14	63786.62
585.30	63206.17
585.46	62922.96
585.62	62897.22
585.78	63278.72
585.94	63175.74
586.10	63475.33
586.26	63625.12
586.42	63821.73
586.58	63950.46
586.74	63805.34
586.90	63571.29
587.06	63304.47
587.22	63580.65
587.38	63290.43
587.54	63119.57
587.70	63398.09
587.86	62969.77
588.02	62773.17
588.18	62649.12
588.34	62014.83
588.49	60673.71
588.65	59599.40
588.81	59290.45
588.97	59344.28
589.13	59157.04
589.29	58983.84
589.45	60034.74
589.61	60603.49
589.77	61579.49
589.93	61738.65
590.08	62258.25
590.24	62302.72
590.40	62578.90
590.56	62506.35
590.72	62646.78
590.88	62010.15
591.04	61890.79
591.20	62094.41
591.35	61843.98
591.51	62152.93
591.67	62080.37
591.83	62042.92
591.99	61911.85
592.15	62239.53
592.31	62155.27
592.46	62031.22
592.62	61911.85
592.78	61984.41
592.94	61897.81
593.10	61963.34
593.26	62096.75
593.41	62138.88
593.57	62138.88
593.73	61839.29
593.89	61705.88
594.05	61670.78
594.20	61296.29
594.36	60985.00
594.52	60879.67
594.68	61022.45
594.84	60966.27
594.99	61279.91
595.15	61490.55
595.31	61598.22
595.47	61464.81
595.62	61612.26
595.78	61677.80
595.94	61909.51
596.10	62010.15
596.25	61495.24
596.41	61406.30
596.57	61361.82
596.73	61586.52
596.88	61602.90
597.04	61499.92
597.20	61139.47
597.36	60985.00
597.51	61090.32
597.67	61013.08
597.83	60865.63
597.99	60963.93
598.14	60645.62
598.30	60669.03
598.46	60748.60
598.61	60963.93
598.77	60952.23
598.93	60959.25
599.09	61272.88
599.24	61310.33
599.40	61090.32
599.56	61300.97
599.71	61186.28
599.87	61176.92
600.03	60814.14
600.18	60856.27
600.34	60605.83
600.50	60324.97
600.65	60491.15
600.81	60603.49
600.97	60612.85
601.12	60530.93
601.28	60481.78
601.44	60430.29
601.59	60128.36
601.75	60055.81
601.91	59927.08
602.06	60100.28
602.22	60247.73
602.37	60011.34
602.53	60224.32
602.69	60554.34
602.84	60662.00
603.00	60898.40
603.16	61076.28
603.31	60886.70
603.47	60669.03
603.62	60814.14
603.78	60577.75
603.94	60530.93
604.09	60516.89
604.25	60519.23
604.40	60247.73
604.56	60252.41
604.71	60542.64
604.87	60369.44
605.03	60310.92
605.18	60353.05
605.34	59873.24
605.49	60287.52
605.65	60664.35
605.80	60121.34
605.96	60039.42
606.12	59784.30
606.27	59730.47
606.43	59798.35
606.58	59845.16
606.74	60058.15
606.89	60023.04
607.05	60137.72
607.20	59880.27
607.36	59770.26
607.51	59674.30
607.67	59475.35
607.82	59400.46
607.98	59501.10
608.13	59217.89
608.29	59222.58
608.44	58965.12
608.60	58988.52
608.75	58972.14
608.91	59096.19
609.06	59255.34
609.22	59274.07
609.37	59161.72
609.53	58993.20
609.68	58684.25
609.84	58183.38
609.99	57956.35
610.15	58045.29
610.30	58087.42
610.46	58592.97
610.61	58742.77
610.76	58981.50
610.92	59217.89
611.07	59358.33
611.23	59126.61
611.38	58848.09
611.54	58862.13
611.69	58424.45
611.84	58145.93
612.00	58056.99
612.15	57717.61
612.31	57815.91
612.46	57911.88
612.62	58047.63
612.77	58255.93
612.92	58225.51
613.08	57755.06
613.23	57205.03
613.39	56669.05
613.54	56659.69
613.69	56982.68
613.85	57045.88
614.00	56966.30
614.15	57595.90
614.31	57509.30
614.46	57776.12
614.62	57792.51
614.77	57439.09
614.92	57504.62
615.08	57319.72
615.23	57542.07
615.38	57308.02
615.54	56697.14
615.69	56252.44
615.84	55451.97
616.00	55510.49
616.15	55735.18
616.30	56247.75
616.46	55922.42
616.61	55980.93
616.76	56210.31
616.92	56200.94
617.07	56341.38
617.22	56378.82
617.37	56507.55
617.53	56959.28
617.68	56959.28
617.83	56959.28
617.99	56980.34
618.14	56994.39
618.29	56734.59
618.45	56601.18
618.60	56495.85
618.75	56048.81
618.90	56076.90
619.06	56502.87
619.21	56582.45
619.36	56949.92
619.51	56753.31
619.67	56427.98
619.82	56587.13
619.97	56704.16
620.12	56301.59
620.28	56306.27
620.43	56739.27
620.58	56502.87
620.73	56577.77
620.89	55889.65
621.04	55842.84
621.19	55742.20
621.34	55388.78
621.49	55463.67
621.65	55253.03
621.80	55770.28
621.95	55533.89
622.10	55576.02
622.25	55257.71
622.41	55334.95
622.56	54817.69
622.71	54492.35
622.86	54394.05
623.01	54763.85
623.16	55000.25
623.32	54801.30
623.47	55058.76
623.62	54784.92
623.77	54539.16
623.92	54923.01
624.07	53600.61
624.23	53670.82
624.38	53710.61
624.53	53895.52
624.68	54017.22
624.83	53907.22
624.98	53783.17
625.13	53551.46
625.29	53490.60
625.44	53385.28
625.59	53549.12
625.74	53249.53
625.89	53176.97
626.04	53684.87
626.19	53478.90
626.34	53715.29
626.49	53663.80
626.65	53595.93
626.80	53366.55
626.95	53329.11
627.10	53773.81
627.25	52659.71
627.40	51735.20
627.55	50981.55
627.70	50473.65
627.85	50850.48
628.00	51456.68
628.15	51992.66
628.30	52580.13
628.45	52287.57
628.60	52477.15
628.76	52748.65
628.91	52528.64
629.06	52224.37
629.21	51870.95
629.36	51356.03
629.51	51199.22
629.66	51147.73
629.81	50583.66
629.96	50850.48
630.11	51283.48
630.26	51870.95
630.41	51697.75
630.56	51503.49
630.71	51503.49
630.86	51442.63
631.01	51112.62
631.16	51049.42
631.31	50342.58
631.46	50358.97
631.61	50485.36
631.76	50784.94
631.91	50988.57
632.06	51056.45
632.21	51580.73
632.36	51657.96
632.51	51306.88
632.66	51557.32
632.81	51243.69
632.96	51072.83
633.10	50719.41
633.25	50630.47
633.40	50356.63
633.55	50864.52
633.70	50925.38
633.85	50529.83
634.00	50656.21
634.15	50857.50
634.30	51011.98
634.45	50869.20
634.60	50756.86
634.75	51033.04
634.90	50930.06
635.05	50571.96
635.19	50157.68
635.34	50899.63
635.49	50630.47
635.64	49876.82
635.79	49890.86
635.94	49607.65
636.09	50143.64
636.24	49853.41
636.39	50206.83
636.53	50017.25
636.68	49752.77
636.83	50424.50
636.98	50618.77
637.13	50672.60
637.28	50532.17
637.43	50522.80
637.57	49928.31
637.72	50019.59
637.87	50071.08
638.02	49881.50
638.17	49993.84
638.32	49525.74
638.46	49771.49
638.61	49378.28
638.76	49308.07
638.91	49104.44
639.06	48580.16
639.20	48502.92
639.35	48210.35
639.50	48678.46
639.65	48254.82
639.80	48385.89
639.94	48484.20
640.09	48648.03
640.24	48781.45
640.39	48072.26
640.54	47756.29
640.68	47749.27
640.83	47573.73
640.98	47049.45
641.13	47185.20
641.27	47943.53
641.42	47232.01
641.57	47454.36
641.72	47098.60
641.86	47288.18
642.01	47393.51
642.16	47817.14
642.31	47672.03
642.45	47810.12
642.60	47555.00
642.75	47496.49
642.90	47393.51
643.04	46974.55
643.19	47363.08
643.34	47157.11
643.48	47381.80
643.63	47203.92
643.78	47129.03
643.93	47578.41
644.07	47903.74
644.22	47676.71
644.37	47332.65
644.51	46731.14
644.66	47096.26
644.81	46719.43
644.95	46684.33
645.10	46567.30
645.25	45600.66
645.39	45808.96
645.54	45949.40
645.69	45745.77
645.83	45167.66
645.98	44809.56
646.13	44945.31
646.27	45081.06
646.42	44914.88
646.57	45226.17
646.71	44502.95
646.86	44774.45
647.00	44353.15
647.15	44563.80
647.30	43880.36
647.44	43913.13
647.59	44020.80
647.74	43325.66
647.88	43519.92
648.03	43393.53
648.17	43372.47
648.32	43297.57
648.47	43950.58
648.61	43800.79
648.76	43484.81
648.90	42429.23
649.05	41542.17
649.20	40624.68
649.34	41146.62
649.49	41361.95
649.63	41820.69
649.78	42979.26
649.92	43145.44
650.07	44208.04
650.21	44282.94
650.36	43805.47
650.51	44102.71
650.65	45022.54
650.80	44273.57
650.94	43955.26
651.09	43674.40
651.23	42342.63
651.38	41855.80
651.52	41743.45
651.67	41780.90
651.81	42277.10
651.96	42469.02
652.10	42803.72
652.25	43124.37
652.39	43122.03
652.54	43007.34
652.68	42653.92
652.83	42911.38
652.97	42597.75
653.12	42768.61
653.26	43136.07
653.41	42902.02
653.55	43012.02
653.70	42658.60
653.84	42553.28
653.99	42728.82
654.13	42316.89
654.27	41666.22
654.42	41006.19
654.56	40954.69
654.71	41397.06
654.85	40643.40
655.00	40439.78
655.14	40437.44
655.29	40081.67
655.43	38714.80
655.57	37455.59
655.72	34932.50
655.86	32428.12
656.01	30735.92
656.15	31047.21
656.30	33088.15
656.44	35229.74
656.58	36102.76
656.73	37331.54
656.87	38036.05
657.01	38480.75
657.16	39194.61
657.30	39381.85
657.45	40055.93
657.59	39943.58
657.73	39927.20
657.88	40039.54
658.02	40004.44
658.16	40084.01
658.31	39260.15
658.45	39667.40
658.60	39541.01
658.74	39522.29
658.88	38948.85
659.03	38466.70
659.17	38663.31
659.31	38857.57
659.46	39049.50
659.60	39477.82
659.74	39941.24
659.89	40385.94
660.03	40772.13
660.17	39952.94
660.32	39971.67
660.46	39821.87
660.60	39168.87
660.74	39093.97
660.89	39054.18
661.03	38827.15
661.17	39187.59
661.32	38871.62
661.46	38998.01
661.60	39363.13
661.74	39084.61
661.89	39676.76
662.03	39049.50
662.17	38447.98
662.31	38827.15
662.46	38813.10
662.60	38677.35
662.74	37734.12
662.88	37851.14
663.03	37390.06
663.17	37317.50
663.31	37549.21
663.45	37350.27
663.60	38323.93
663.74	37574.96
663.88	37429.85
664.02	36713.64
664.17	37209.84
664.31	36854.08
664.45	36701.94
664.59	37027.28
664.73	37144.30
664.88	37371.33
665.02	36914.93
665.16	36638.75
665.30	36795.56
665.44	36900.89
665.59	36290.01
665.73	36233.83
665.87	35751.68
666.01	35515.29
666.15	35309.32
666.29	35466.14
666.44	36187.02
666.58	36180.00
666.72	35747.00
666.86	36479.59
667.00	36390.65
667.14	36154.26
667.28	35697.85
667.43	35346.77
667.57	35246.13
667.71	35213.36
667.85	35220.38
667.99	35014.41
668.13	34677.38
668.27	35360.81
668.41	35269.53
668.56	35093.99
668.70	35288.26
668.84	34469.07
668.98	34883.34
669.12	34628.23
669.26	34354.38
669.40	34082.88
669.54	34087.56
669.68	34274.80
669.82	34597.80
669.96	34225.65
670.10	33689.67
670.25	33703.71
670.39	33722.44
670.53	33579.67
670.67	33298.80
670.81	33495.41
670.95	33017.94
671.09	32512.38
671.23	33029.64
671.37	32144.92
671.51	32580.26
671.65	32418.76
671.79	32332.16
671.93	33017.94
672.07	33371.36
672.21	33209.86
672.35	32795.59
672.49	32580.26
672.63	32624.73
672.77	32306.41
672.91	32311.10
673.05	32608.34
673.19	32311.10
673.33	32027.89
673.47	31566.81
673.61	31728.30
673.75	31379.56
673.89	31768.09
674.03	31971.72
674.17	31651.06
674.31	31302.32
674.45	31044.87
674.59	31166.57
674.73	31147.85
674.87	31159.55
675.01	30419.94
675.15	31021.46
675.29	31007.42
675.43	31037.84
675.56	30611.87
675.70	30572.08
675.84	30817.83
675.98	29699.06
676.12	30513.56
676.26	30738.26
676.40	30326.32
676.54	29661.61
676.68	30010.35
676.82	29762.25
676.96	29582.03
677.10	29333.93
677.23	28643.48
677.37	28861.15
677.51	29001.58
677.65	28652.84
677.79	28371.97
677.93	28697.31
678.07	29010.94
678.21	28388.36
678.34	28044.30
678.48	27665.13
678.62	28079.41
678.76	28254.95
678.90	28732.42
679.04	28297.08
679.18	28327.50
679.31	28121.54
679.45	27475.55
679.59	27875.78
679.73	27505.98
679.87	27508.32
680.00	27491.93
680.14	27276.60
680.28	27103.40
680.42	27260.22
680.56	26785.09
680.70	26324.01
680.83	26080.59
680.97	26333.37
681.11	26270.17
681.25	26075.91
681.39	26038.46
681.52	25830.15
681.66	25673.34
681.80	26061.87
681.94	25993.99
682.07	26141.44
682.21	25862.92
682.35	25104.59
682.49	25319.92
682.62	25057.78
682.76	24915.00
682.90	25102.25
683.04	25233.32
683.17	24905.64
683.31	24929.05
683.45	24554.56
683.59	24463.28
683.72	23646.43
683.86	23398.34
684.00	23421.74
684.13	23435.78
684.27	23449.83
684.41	23840.70
684.55	23576.22
684.68	23534.09
684.82	23498.98
684.96	23590.26
685.09	23080.02
685.23	22876.40
685.37	22754.69
685.50	22686.81
685.64	22670.43
685.78	22628.30
685.91	22464.46
686.05	22581.49
686.19	21888.69
686.32	20648.21
686.46	18092.34
686.60	16056.08
686.73	14672.82
686.87	14001.08
687.01	13965.98
687.14	14242.16
687.28	14705.59
687.42	15367.96
687.55	15730.74
687.69	16982.93
687.82	17713.17
687.96	18391.93
688.10	17858.29
688.23	17991.70
688.37	17631.26
688.50	17111.66
688.64	17212.30
688.78	16865.90
688.91	17123.36
689.05	17151.45
689.18	16622.48
689.32	16812.07
689.46	16837.81
689.59	17532.95
689.73	17177.19
689.86	17287.20
690.00	17057.82
690.13	17472.10
690.27	17673.39
690.41	17436.99
690.54	17270.81
690.68	17156.13
690.81	17406.56
690.95	17336.35
691.08	17649.98
691.22	17813.82
691.35	17666.36
691.49	17376.14
691.62	17270.81
691.76	17834.88
691.89	17762.33
692.03	17193.58
692.16	17163.15
692.30	17270.81
692.43	16975.91
692.57	16971.22
692.70	16554.61
692.84	16449.28
692.97	16313.53
693.11	16912.71
693.24	16500.78
693.38	16786.32
693.51	16444.60
693.65	16049.05
693.78	15751.81
693.92	15683.93
694.05	15796.28
694.19	15742.44
694.32	15988.20
694.45	15494.35
694.59	15330.51
694.72	15831.38
694.86	15784.57
694.99	15716.70
695.13	15417.11
695.26	15246.25
695.39	14892.83
695.53	15227.53
695.66	15386.68
695.80	15073.05
695.93	15342.21
696.07	15253.27
696.20	15154.97
696.33	15470.94
696.47	15744.78
696.60	15599.67
696.73	15644.14
696.87	15871.17
697.00	15634.78
697.14	15400.72
697.27	15194.76
697.40	15030.92
697.54	14312.38
697.67	14410.68
697.80	14298.33
697.94	13989.38
698.07	14083.00
698.21	14382.59
698.34	13703.84
698.47	13767.03
698.61	13518.93
698.74	13628.94
698.87	13540.00
699.01	13479.15
699.14	13460.42
699.27	13811.50
699.40	13900.44
699.54	13575.11
699.67	13444.04
699.80	13233.39
699.94	13338.71
700.07	12945.50
700.20	12566.34
700.34	12386.12
700.47	12343.99
700.60	12423.56
700.73	12564.00
700.87	12521.87
701.00	12381.43
701.13	12559.31
701.26	12306.54
701.40	12217.60
701.53	12002.27
701.66	12208.23
701.79	12138.02
701.93	12025.67
702.06	11796.30
702.19	11990.56
702.32	12299.52
702.46	11983.54
702.59	11899.28
702.72	11552.88
702.85	11587.99
702.99	11847.79
703.12	11946.09
703.25	11686.29
703.38	11609.06
703.51	11470.97
703.65	11492.03
703.78	11297.77
703.91	11384.37
704.04	11370.32
704.17	11485.01
704.31	11695.66
704.44	11604.38
704.57	11705.02
704.70	11592.67
704.83	11227.55
704.96	11089.46
705.10	10834.34
705.23	10595.61
>>>>>End Processed Spectral Data<<<<<
