SpectraSuite Data File
++++++++++++++++++++++++++++++++++++
Date: Mon Oct 07 14:54:01 GMT-05:00 2013
User: price-jones
Dark Spectrum Present: No
Reference Spectrum Present: No
Number of Sampled Component Spectra: 1
Spectrometers: USB2+H05261
Integration Time (usec): 100000 (USB2+H05261)
Spectra Averaged: 1 (USB2+H05261)
Boxcar Smoothing: 0 (USB2+H05261)
Correct for Electrical Dark: No (USB2+H05261)
Strobe/Lamp Enabled: No (USB2+H05261)
Correct for Detector Non-linearity: No (USB2+H05261)
Correct for Stray Light: No (USB2+H05261)
Number of Pixels in Processed Spectrum: 2048
>>>>>Begin Processed Spectral Data<<<<<
365.73	0.00
365.92	0.00
366.12	0.00
366.32	0.00
366.52	0.00
366.72	0.00
366.91	0.00
367.11	0.00
367.31	0.00
367.51	0.00
367.70	0.00
367.90	0.00
368.10	0.00
368.30	0.00
368.49	0.00
368.69	0.00
368.89	0.00
369.09	0.00
369.28	0.00
369.48	0.00
369.68	0.00
369.87	0.00
370.07	0.00
370.27	0.00
370.47	631.94
370.66	3194.83
370.86	3850.18
371.06	4070.19
371.25	4308.93
371.45	3824.44
371.65	3475.70
371.84	3208.87
372.04	3538.89
372.24	3824.44
372.44	4138.07
372.63	3964.87
372.83	3583.36
373.03	3328.24
373.22	2911.63
373.42	3054.40
373.62	3569.32
373.81	3887.63
374.01	3927.42
374.21	3620.81
374.40	3304.84
374.60	3459.31
374.79	3861.88
374.99	4542.98
375.19	4800.44
375.38	4793.42
375.58	4634.26
375.78	4400.21
375.97	4603.83
376.17	4732.56
376.37	4762.99
376.56	4975.98
376.76	5081.30
376.95	5373.87
377.15	5902.83
377.35	6143.91
377.54	6370.94
377.74	6420.09
377.93	6370.94
378.13	6274.98
378.33	6001.13
378.52	5348.12
378.72	5362.17
378.91	5324.72
379.11	4938.53
379.31	4858.95
379.50	4805.12
379.70	5224.08
379.89	5863.04
380.09	6005.81
380.28	6225.82
380.48	6413.07
380.68	6146.25
380.87	6085.39
381.07	5657.07
381.26	5123.43
381.46	4894.06
381.65	4683.41
381.85	4650.64
382.04	4278.50
382.24	3932.10
382.43	3894.65
382.63	3866.56
382.83	3815.07
383.02	3847.84
383.22	3854.86
383.41	3967.21
383.61	4191.90
383.80	4648.30
384.00	5301.31
384.19	5844.32
384.39	6317.11
384.58	6326.47
384.78	6352.21
384.97	6146.25
385.17	5867.72
385.36	5511.96
385.56	5256.84
385.75	5408.98
385.95	5947.30
386.14	6630.74
386.34	6502.01
386.53	6274.98
386.72	5731.97
386.92	5884.11
387.11	6167.31
387.31	6438.81
387.50	6359.24
387.70	6094.76
387.89	6087.73
388.09	6237.53
388.28	6202.42
388.48	6200.08
388.67	6794.58
388.86	7267.36
389.06	7826.75
389.25	8315.92
389.45	8306.56
389.64	8236.35
389.84	8187.19
390.03	8166.13
390.22	7866.54
390.42	8395.50
390.61	8915.10
390.81	9680.46
391.00	9797.48
391.19	9575.13
391.39	9413.63
391.58	8802.75
391.78	8121.66
391.97	8074.85
392.16	7531.84
392.36	6766.49
392.55	5530.69
392.75	4503.19
392.94	3445.27
393.13	3459.31
393.33	4067.85
393.52	5420.68
393.71	6464.56
393.91	7232.26
394.10	7908.67
394.29	8788.71
394.49	9298.95
394.68	10200.05
394.88	10202.40
395.07	10429.43
395.26	10480.92
395.46	10129.84
395.65	9434.70
395.84	8322.94
396.04	7129.27
396.23	5753.04
396.42	4770.01
396.62	4542.98
396.81	5404.30
397.00	6949.05
397.19	8669.34
397.39	10164.95
397.58	11384.37
397.77	12131.00
397.97	12643.57
398.16	12781.67
398.35	13195.94
398.55	13401.91
398.74	13961.30
398.93	14291.31
399.12	14071.30
399.32	13575.11
399.51	13998.74
399.70	14895.17
399.90	14764.10
400.09	14883.47
400.28	14382.59
400.47	14792.19
400.67	15641.80
400.86	15875.85
401.05	16018.63
401.24	15634.78
401.44	16306.51
401.63	16053.73
401.82	16444.60
402.01	16208.21
402.21	16652.91
402.40	16606.10
402.59	16304.17
402.78	15536.48
402.97	14920.92
403.17	15426.47
403.36	16531.20
403.55	16725.47
403.74	17296.56
403.93	16339.28
404.13	15108.16
404.32	14726.65
404.51	15632.44
404.70	16570.99
404.89	16723.13
405.09	16423.54
405.28	16102.89
405.47	16257.36
405.66	15887.56
405.85	15559.88
406.05	15199.44
406.24	15300.08
406.43	16163.74
406.62	16620.14
406.81	16676.32
407.00	16102.89
407.20	15473.28
407.39	15971.82
407.58	16318.22
407.77	17090.59
407.96	17542.32
408.15	18068.94
408.34	17696.79
408.54	18778.12
408.73	18909.19
408.92	18766.42
409.11	18349.80
409.30	17076.55
409.49	16210.55
409.68	15435.83
409.87	14864.74
410.07	15941.39
410.26	16908.03
410.45	17891.06
410.64	18302.99
410.83	18902.17
411.02	19159.63
411.21	20397.77
411.40	19861.79
411.59	19854.76
411.78	20025.62
411.98	19580.92
412.17	20042.01
412.36	19365.59
412.55	19747.10
412.74	19302.40
412.93	18705.56
413.12	19021.53
413.31	20676.29
413.50	21158.44
413.69	21128.02
413.88	20748.85
414.07	19819.66
414.26	20163.72
414.45	20877.58
414.64	20992.26
414.83	20936.09
415.02	20676.29
415.22	20465.64
415.41	20994.61
415.60	21514.20
415.79	22366.16
415.98	22764.05
416.17	22951.29
416.36	22457.44
416.55	21994.01
416.74	21530.59
416.93	21018.01
417.12	20585.01
417.31	20903.32
417.50	21228.66
417.69	22256.15
417.88	21895.71
418.07	21539.95
418.26	21324.62
418.45	21748.26
418.64	22338.07
418.83	23407.70
419.02	22625.96
419.21	22733.62
419.39	21642.93
419.58	20603.74
419.77	20755.87
419.96	21668.68
420.15	22567.45
420.34	23618.35
420.53	24037.30
420.72	24877.55
420.91	24542.86
421.10	24304.12
421.29	23796.23
421.48	23145.56
421.67	24388.38
421.86	23520.04
422.05	21947.20
422.24	19765.82
422.43	19374.95
422.61	21645.27
422.80	23470.89
422.99	23688.56
423.18	22326.37
423.37	22211.68
423.56	22073.59
423.75	22757.03
423.94	22874.06
424.13	22005.72
424.32	21799.75
424.50	21935.50
424.69	21350.37
424.88	21514.20
425.07	21834.86
425.26	21699.11
425.45	21034.39
425.64	21078.86
425.83	21137.38
426.01	22178.92
426.20	22686.81
426.39	22822.56
426.58	21029.71
426.77	19253.25
426.96	18946.64
427.15	19463.90
427.33	20971.20
427.52	22143.81
427.71	22031.46
427.90	21490.80
428.09	21497.82
428.28	20816.72
428.46	20170.74
428.65	20154.35
428.84	20760.55
429.03	20950.14
429.22	19522.41
429.40	18731.31
429.59	17130.38
429.78	15222.84
429.97	15021.56
430.16	15492.01
430.34	15405.41
430.53	15269.66
430.72	15639.46
430.91	16987.61
431.10	19941.36
431.28	24041.98
431.47	25886.32
431.66	26183.57
431.85	24159.01
432.03	22094.66
432.22	20858.85
432.41	21743.58
432.60	23967.09
432.79	25153.74
432.97	25809.09
433.16	25259.06
433.35	23475.57
433.54	20765.23
433.72	19438.15
433.91	19922.64
434.10	22389.56
434.28	23850.06
434.47	25242.68
434.66	24891.60
434.85	24215.18
435.03	24060.71
435.22	24526.47
435.41	26075.91
435.59	26012.71
435.78	26389.54
435.97	27257.88
436.16	27344.48
436.34	27108.08
436.53	26419.97
436.72	26246.77
436.90	24884.58
437.09	24554.56
437.28	24697.33
437.46	25467.37
437.65	25266.08
437.84	23637.07
438.02	21659.32
438.21	21460.37
438.40	23056.62
438.58	25233.32
438.77	25245.02
438.96	25312.89
439.14	26576.78
439.33	27365.54
439.52	27634.71
439.70	27197.02
439.89	26487.84
440.08	25572.69
440.26	25596.10
440.45	26445.71
440.63	28018.55
440.82	29984.60
441.01	29439.26
441.19	29247.33
441.38	29291.80
441.57	30483.14
441.75	31136.15
441.94	31454.46
442.12	30771.02
442.31	31435.74
442.50	31157.21
442.68	30958.27
442.87	30529.95
443.05	30092.27
443.24	30852.94
443.43	31353.82
443.61	31913.20
443.80	32175.34
443.98	30265.47
444.17	30300.58
444.35	32191.73
444.54	32201.09
444.73	32114.49
444.91	30808.47
445.10	29443.94
445.28	28479.64
445.47	28245.58
445.65	28308.78
445.84	29270.74
446.02	30024.39
446.21	30174.19
446.39	29937.79
446.58	31112.74
446.77	31381.90
446.95	31775.11
447.14	32542.81
447.32	33027.30
447.51	32407.06
447.69	31009.76
447.88	30607.19
448.06	30932.52
448.25	31817.24
448.43	32404.72
448.62	31316.37
448.80	31150.19
448.99	31580.85
449.17	31730.64
449.36	31714.26
449.54	32608.34
449.73	33434.55
449.91	33921.38
450.10	34628.23
450.28	35103.35
450.46	34637.59
450.65	34558.01
450.83	34974.63
451.02	33972.88
451.20	33883.94
451.39	33612.43
451.57	33626.48
451.76	33862.87
451.94	33464.98
452.13	32826.01
452.31	31208.70
452.49	29818.42
452.68	30256.11
452.86	30078.22
453.05	30721.87
453.23	31604.25
453.42	32311.10
453.60	32891.55
453.78	33539.88
453.97	33017.94
454.15	33460.30
454.34	32016.19
454.52	32332.16
454.70	31730.64
454.89	32233.86
455.07	32130.87
455.26	32613.02
455.44	33656.90
455.62	34155.44
455.81	34789.72
455.99	34635.25
456.17	33919.04
456.36	33907.34
456.54	35222.72
456.73	35314.00
456.91	35634.66
457.09	35269.53
457.28	36421.08
457.46	35147.82
457.64	34773.34
457.83	33577.33
458.01	33001.55
458.19	33839.47
458.38	33916.70
458.56	35419.33
458.74	34747.59
458.93	34632.91
459.11	34251.40
459.29	34092.24
459.48	34501.84
459.66	34286.51
459.84	34394.17
460.03	34962.92
460.21	35180.59
460.39	35758.70
460.57	35494.22
460.76	36105.10
460.94	36121.49
461.12	35655.72
461.31	35742.32
461.49	35564.44
461.67	35903.82
461.85	36407.03
462.04	36783.86
462.22	37118.56
462.40	36446.82
462.59	36140.21
462.77	36755.77
462.95	36336.82
463.13	35674.45
463.32	36081.70
463.50	35384.22
463.68	35377.20
463.86	35690.83
464.05	35634.66
464.23	34581.42
464.41	34291.19
464.59	33457.96
464.78	35459.12
464.96	35199.32
465.14	34934.84
465.32	35672.10
465.50	36460.87
465.69	37523.47
465.87	36287.67
466.05	34768.66
466.23	33528.17
466.41	32657.49
466.60	33975.22
466.78	33570.30
466.96	34342.68
467.14	35159.53
467.32	35627.63
467.51	35452.09
467.69	33280.08
467.87	34876.32
468.05	35269.53
468.23	35131.44
468.41	35491.88
468.60	35140.80
468.78	35789.13
468.96	34766.32
469.14	35938.93
469.32	36336.82
469.50	34749.93
469.69	34820.15
469.87	34532.26
470.05	34646.95
470.23	34064.16
470.41	34312.25
470.59	34675.04
470.77	35035.48
470.95	35517.63
471.14	36392.99
471.32	36037.23
471.50	37783.27
471.68	38136.69
471.86	38396.49
472.04	38242.01
472.22	38672.67
472.40	36563.85
472.58	36524.06
472.77	36182.34
472.95	36868.12
473.13	37771.57
473.31	36996.85
473.49	37153.66
473.67	37731.78
473.85	38026.68
474.03	38895.02
474.21	38763.95
474.39	39246.10
474.57	39438.03
474.75	39428.66
474.93	38955.88
475.12	38153.07
475.30	38340.32
475.48	38417.55
475.66	39166.52
475.84	38623.52
476.02	38719.48
476.20	37645.18
476.38	38349.68
476.56	39304.62
476.74	39796.13
476.92	40002.10
477.10	40446.80
477.28	41624.09
477.46	41764.52
477.64	42525.19
477.82	41949.42
478.00	42618.81
478.18	41624.09
478.36	41305.77
478.54	41563.23
478.72	41918.99
478.90	42965.21
479.08	43782.06
479.26	44781.47
479.44	44678.49
479.62	43475.45
479.80	44114.42
479.98	44596.57
480.16	44327.41
480.34	44458.48
480.52	44830.62
480.70	44961.69
480.88	44928.92
481.06	45874.50
481.24	46162.39
481.41	46866.89
481.59	46958.17
481.77	47082.22
481.95	46607.09
482.13	46120.26
482.31	46745.18
482.49	47414.57
482.67	47096.26
482.85	46930.08
483.03	47606.50
483.21	48224.40
483.39	48229.08
483.57	47435.64
483.74	47054.13
483.92	47185.20
484.10	47945.87
484.28	48456.11
484.46	48704.21
484.64	49242.53
484.82	48142.48
485.00	47796.08
485.18	47012.00
485.35	45900.25
485.53	42873.93
485.71	39299.94
485.89	38352.02
486.07	40282.96
486.25	44002.07
486.43	46033.66
486.61	47145.41
486.78	46958.17
486.96	46791.99
487.14	48811.87
487.32	49022.52
487.50	50595.36
487.68	51091.55
487.85	52002.02
488.03	51721.16
488.21	51210.92
488.39	50560.25
488.57	49935.33
488.75	49331.47
488.92	50813.03
489.10	52619.92
489.28	53820.62
489.46	54759.17
489.64	54433.84
489.81	54688.96
489.99	54361.28
490.17	54260.64
490.35	54555.55
490.53	54642.15
490.70	53666.14
490.88	53581.88
491.06	54710.02
491.24	54578.95
491.41	53736.36
491.59	52196.29
491.77	51349.01
491.95	52413.96
492.13	53652.10
492.30	54583.63
492.48	55580.70
492.66	56067.53
492.84	55873.27
493.01	55618.15
493.19	55260.05
493.37	54698.32
493.54	54878.54
493.72	55566.66
493.90	56175.20
494.08	56949.92
494.25	57076.30
494.43	57270.57
494.61	57771.44
494.79	57766.76
494.96	57682.50
495.14	57078.64
495.32	56163.50
495.49	55433.25
495.67	56573.09
495.85	57733.99
496.02	58471.26
496.20	58007.84
496.38	57549.09
496.55	57528.03
496.73	57785.49
496.91	58021.88
497.09	58607.01
497.26	58691.27
497.44	58223.17
497.62	57673.14
497.79	56987.36
497.97	55578.36
498.14	55994.98
498.32	57001.41
498.50	57932.94
498.67	58539.14
498.85	58295.72
499.03	58459.56
499.20	58494.67
499.38	58754.47
499.56	58534.46
499.73	57972.73
499.91	57640.37
500.08	57277.59
500.26	56470.11
500.44	56903.10
500.61	57682.50
500.79	57570.16
500.97	56985.02
501.14	57083.33
501.32	56842.25
501.49	56891.40
501.67	57069.28
501.84	57446.11
502.02	57528.03
502.20	58171.67
502.37	57968.05
502.55	58120.18
502.72	58789.58
502.90	59180.45
503.07	58831.71
503.25	58691.27
503.43	57808.89
503.60	57088.01
503.78	56217.33
503.95	56898.42
504.13	58056.99
504.30	58937.03
504.48	58700.64
504.65	58534.46
504.83	58494.67
505.01	59091.51
505.18	59355.99
505.36	60030.06
505.53	60001.97
505.71	60371.78
505.88	60355.39
506.06	59700.04
506.23	59377.05
506.41	58997.88
506.58	59100.87
506.76	59201.51
506.93	59068.10
507.11	58749.79
507.28	59100.87
507.46	58625.74
507.63	58071.03
507.81	57923.58
507.98	58052.31
508.16	58700.64
508.33	59220.23
508.50	59580.68
508.68	60011.34
508.85	60411.57
509.03	60287.52
509.20	60055.81
509.38	59412.16
509.55	58735.74
509.73	58997.88
509.90	59454.29
510.08	59594.72
510.25	59381.73
510.42	59398.12
510.60	59185.13
510.77	59494.08
510.95	59941.12
511.12	60135.38
511.30	60193.90
511.47	60678.39
511.64	60568.38
511.82	60416.25
511.99	59517.48
512.17	59133.63
512.34	58805.96
512.51	59079.80
512.69	58901.92
512.86	59309.18
513.04	59608.76
513.21	59781.96
513.38	59243.64
513.56	58599.99
513.73	58312.11
513.90	58356.58
514.08	58122.52
514.25	58681.91
514.43	59021.29
514.60	59061.08
514.77	59316.20
514.95	59444.93
515.12	59131.29
515.29	59145.34
515.47	59664.94
515.64	59971.55
515.81	59784.30
515.99	59260.02
516.16	57719.95
516.33	55716.45
516.51	54010.20
516.68	53460.18
516.85	52900.79
517.03	53357.19
517.20	55849.86
517.37	58237.21
517.54	59145.34
517.72	58717.02
517.89	56388.19
518.06	54005.52
518.24	54333.20
518.41	56390.53
518.58	57609.95
518.75	58424.45
518.93	58497.01
519.10	58206.78
519.27	58628.08
519.45	58932.35
519.62	59550.25
519.79	59643.87
519.96	59678.98
520.14	58960.44
520.31	58319.13
520.48	58267.64
520.65	58546.16
520.83	59515.14
521.00	59887.29
521.17	59597.06
521.34	59231.94
521.52	59517.48
521.69	60025.38
521.86	60409.23
522.03	60046.44
522.20	58890.22
522.38	58005.50
522.55	58115.50
522.72	58637.44
522.89	58749.79
523.07	58876.18
523.24	59264.70
523.41	59798.35
523.58	60114.32
523.75	60547.32
523.92	60526.25
524.10	60308.58
524.27	60491.15
524.44	60301.56
524.61	60006.65
524.78	59938.78
524.96	59746.86
525.13	59742.17
525.30	60041.76
525.47	60458.38
525.64	60343.69
525.81	59866.22
525.98	58248.91
526.16	57293.97
526.33	56285.20
526.50	56247.75
526.67	55671.98
526.84	56404.57
527.01	57151.20
527.18	58005.50
527.36	58712.34
527.53	59580.68
527.70	60151.77
527.87	59253.00
528.04	58873.84
528.21	59412.16
528.38	60191.56
528.55	60772.01
528.72	60818.82
528.89	61020.11
529.07	60783.71
529.24	60231.35
529.41	59437.90
529.58	58803.62
529.75	58841.07
529.92	59552.59
530.09	59929.42
530.26	60221.98
530.43	60502.85
530.60	60662.00
530.77	60821.16
530.94	60828.18
531.11	60449.02
531.28	60046.44
531.46	59915.37
531.63	60156.45
531.80	60083.89
531.97	59402.80
532.14	58812.98
532.31	57806.55
532.48	57076.30
532.65	57176.95
532.82	58185.72
532.99	59077.46
533.16	59311.52
533.33	59838.14
533.50	59606.42
533.67	59353.65
533.84	58672.55
534.01	58965.12
534.18	59213.21
534.35	59318.54
534.52	59185.13
534.69	59384.07
534.86	59791.33
535.03	59758.56
535.20	60355.39
535.37	60711.16
535.54	60680.73
535.71	60362.42
535.88	60189.22
536.05	59559.61
536.22	59180.45
536.38	58878.52
536.55	58387.00
536.72	58021.88
536.89	57771.44
537.06	58810.64
537.23	59615.79
537.40	59545.57
537.57	59662.60
537.74	59407.48
537.91	59398.12
538.08	59440.24
538.25	59536.21
538.42	59648.55
538.59	59363.01
538.75	58702.98
538.92	58642.12
539.09	58485.31
539.26	58370.62
539.43	58033.58
539.60	58106.14
539.77	58412.75
539.94	58150.61
540.11	57483.56
540.28	57146.52
540.44	56996.73
540.61	57123.11
540.78	57815.91
540.95	58024.22
541.12	58384.66
541.29	58518.07
541.46	59014.27
541.62	58827.02
541.79	58798.94
541.96	58265.30
542.13	58031.24
542.30	58454.88
542.47	58658.51
542.63	58066.35
542.80	57986.77
542.97	58174.02
543.14	58174.02
543.31	57993.79
543.48	58621.06
543.64	59564.29
543.81	59604.08
543.98	59482.37
544.15	58829.37
544.32	58337.85
544.48	58377.64
544.65	58618.72
544.82	59124.27
544.99	58745.11
545.16	58492.33
545.32	58255.93
545.49	58990.86
545.66	59421.52
545.83	58939.37
546.00	58473.60
546.16	58401.05
546.33	58321.47
546.50	58225.51
546.67	58927.67
546.83	58494.67
547.00	58588.29
547.17	57633.35
547.34	57483.56
547.50	57198.01
547.67	57623.99
547.84	57434.41
548.00	58056.99
548.17	58548.50
548.34	58368.28
548.51	58122.52
548.67	58239.55
548.84	58443.18
549.01	58302.74
549.18	58309.77
549.34	58209.12
549.51	58209.12
549.68	58169.33
549.84	57764.42
550.01	57811.23
550.18	57614.63
550.34	57808.89
550.51	57794.85
550.68	58021.88
550.84	57359.51
551.01	57542.07
551.18	57375.89
551.34	57726.97
551.51	57998.48
551.68	58408.07
551.84	58110.82
552.01	58141.25
552.18	58052.31
552.34	57228.44
552.51	56832.89
552.68	56687.78
552.84	57340.78
553.01	57563.14
553.18	57401.64
553.34	57462.49
553.51	57506.96
553.67	57918.90
553.84	57918.90
554.01	57888.47
554.17	57750.38
554.34	57827.62
554.51	58089.76
554.67	58134.23
554.84	57853.36
555.00	57691.86
555.17	57422.70
555.33	57340.78
555.50	57347.81
555.67	57532.71
555.83	57293.97
556.00	57132.48
556.16	56835.23
556.33	56463.08
556.50	56413.93
556.66	56552.02
556.83	55987.95
556.99	56456.06
557.16	56690.12
557.32	56870.34
557.49	57134.82
557.65	56804.80
557.82	56846.93
557.98	56547.34
558.15	56231.37
558.32	55655.60
558.48	54646.83
558.65	54749.81
558.81	55285.79
558.98	55477.72
559.14	55721.13
559.31	55882.63
559.47	55913.06
559.64	55543.25
559.80	55271.75
559.97	55061.10
560.13	55760.92
560.30	56453.72
560.46	56938.21
560.63	57092.69
560.79	57373.55
560.96	56903.10
561.12	55601.77
561.29	54878.54
561.45	55121.96
561.61	55477.72
561.78	55927.10
561.94	55826.46
562.11	55561.98
562.27	55480.06
562.44	55744.54
562.60	56219.67
562.77	56212.65
562.93	56229.03
563.10	55948.17
563.26	55594.74
563.42	55592.40
563.59	55250.69
563.75	55348.99
563.92	55302.18
564.08	55201.53
564.24	55695.39
564.41	55840.50
564.57	55550.27
564.74	55234.30
564.90	55288.13
565.07	55054.08
565.23	54784.92
565.39	54511.08
565.56	53846.36
565.72	53759.76
565.88	54178.72
566.05	53923.60
566.21	54312.13
566.38	54794.28
566.54	54714.70
566.70	55203.88
566.87	55250.69
567.03	55283.45
567.19	55372.39
567.36	55327.92
567.52	55150.04
567.68	54759.17
567.85	54405.75
568.01	53715.29
568.17	53425.07
568.34	53474.22
568.50	53254.21
568.66	53600.61
568.83	54127.23
568.99	53865.09
569.15	54000.84
569.32	54227.87
569.48	53626.35
569.64	53675.51
569.81	53305.70
569.97	53474.22
570.13	53050.58
570.30	52687.80
570.46	52116.71
570.62	51847.55
570.78	51578.39
570.95	51770.31
571.11	52430.34
571.27	52945.26
571.43	53270.59
571.60	53226.12
571.76	53492.94
571.92	54059.35
572.09	54042.97
572.25	53907.22
572.41	53829.98
572.57	53734.02
572.74	53883.81
572.90	53172.29
573.06	53209.74
573.22	53551.46
573.38	53453.15
573.55	53378.26
573.71	53469.54
573.87	53392.30
574.03	53144.20
574.20	52889.09
574.36	52664.39
574.52	52788.44
574.68	52481.83
574.84	52222.03
575.01	51608.81
575.17	51524.55
575.33	51870.95
575.49	52083.94
575.65	52491.19
575.82	52009.04
575.98	51725.84
576.14	51924.78
576.30	52662.05
576.46	52484.17
576.62	52500.56
576.79	52175.22
576.95	51828.82
577.11	51887.34
577.27	52060.54
577.43	52128.41
577.59	51547.96
577.75	51267.09
577.92	50707.71
578.08	50438.54
578.24	50412.80
578.40	50733.45
578.56	50801.33
578.72	51084.53
578.88	51189.86
579.04	51323.27
579.21	51470.72
579.37	51700.09
579.53	51765.63
579.69	51398.16
579.85	51833.50
580.01	51372.42
580.17	51290.50
580.33	51000.27
580.49	51047.08
580.65	51491.79
580.82	51908.40
580.98	51461.36
581.14	51547.96
581.30	51365.40
581.46	51377.10
581.62	51751.59
581.78	51508.17
581.94	51688.39
582.10	51751.59
582.26	52048.83
582.42	51627.54
582.58	51583.07
582.74	51664.99
582.90	51540.94
583.06	51915.42
583.22	51473.06
583.38	51278.80
583.54	51239.01
583.70	51058.79
583.86	51255.39
584.02	50901.97
584.18	51524.55
584.34	51210.92
584.50	51063.47
584.66	50908.99
584.82	50452.59
584.98	50408.12
585.14	50157.68
585.30	49244.87
585.46	48718.25
585.62	48839.96
585.78	49406.37
585.94	49158.27
586.10	49918.95
586.26	50117.89
586.42	50148.32
586.58	50719.41
586.74	50293.43
586.90	50485.36
587.06	49930.65
587.22	50138.96
587.38	49450.84
587.54	49291.68
587.70	49202.74
587.86	49066.99
588.02	48477.18
588.18	48280.57
588.34	47229.67
588.49	45289.37
588.65	42419.87
588.81	42689.03
588.97	42864.57
589.13	42890.32
589.29	42099.22
589.45	43358.42
589.61	44788.49
589.77	46050.04
589.93	46827.10
590.08	47746.93
590.24	47880.34
590.40	48250.14
590.56	48292.27
590.72	47824.17
590.88	47606.50
591.04	46892.63
591.20	47117.32
591.35	47037.75
591.51	46976.89
591.67	46894.97
591.83	46923.06
591.99	47009.66
592.15	47540.96
592.31	47744.59
592.46	47423.93
592.62	47173.50
592.78	47040.09
592.94	46911.36
593.10	47089.24
593.26	47538.62
593.41	47491.81
593.57	47117.32
593.73	46616.45
593.89	46494.74
594.05	46050.04
594.20	45563.21
594.36	45495.33
594.52	45167.66
594.68	45518.74
594.84	45497.67
594.99	46131.96
595.15	46103.87
595.31	46204.52
595.47	46068.76
595.62	46349.63
595.78	46724.11
595.94	46525.17
596.10	46857.52
596.25	46653.90
596.41	46403.46
596.57	45710.66
596.73	46188.13
596.88	46291.12
597.04	46162.39
597.20	45783.22
597.36	45443.84
597.51	45818.33
597.67	45631.08
597.83	45429.80
597.99	45483.63
598.14	45219.15
598.30	45198.09
598.46	44725.30
598.61	44795.51
598.77	44570.82
598.93	45317.45
599.09	45825.35
599.24	45558.53
599.40	45469.59
599.56	44947.65
599.71	45256.60
599.87	45525.76
600.03	45336.18
600.18	44807.22
600.34	44507.63
600.50	44327.41
600.65	44729.98
600.81	44418.69
600.97	44240.81
601.12	44151.87
601.28	44814.24
601.44	44194.00
601.59	43728.23
601.75	43409.92
601.91	43597.16
602.06	43494.18
602.22	43440.34
602.37	43964.62
602.53	43999.73
602.69	44804.88
602.84	44722.96
603.00	44662.10
603.16	45265.96
603.31	44837.64
603.47	45057.65
603.62	44825.94
603.78	44776.79
603.94	44201.02
604.09	44315.70
604.25	44348.47
604.40	44025.48
604.56	44343.79
604.71	44549.76
604.87	44247.83
605.03	43957.60
605.18	43658.01
605.34	43866.32
605.49	43578.43
605.65	43487.15
605.80	43611.20
605.96	43285.87
606.12	43107.99
606.27	42841.17
606.43	42880.95
606.58	43545.67
606.74	43035.43
606.89	43641.63
607.05	43782.06
607.20	43147.78
607.36	42838.83
607.51	42553.28
607.67	42319.23
607.82	42541.58
607.98	42480.72
608.13	42359.02
608.29	41993.89
608.44	41764.52
608.60	41794.95
608.75	41907.29
608.91	41993.89
609.06	42024.32
609.22	42204.54
609.37	41841.76
609.53	42284.12
609.68	41338.54
609.84	40336.79
609.99	40168.27
610.15	40650.42
610.30	40755.75
610.46	40879.80
610.61	41670.90
610.76	41689.62
610.92	42068.79
611.07	42101.56
611.23	42213.90
611.38	41825.37
611.54	41191.09
611.69	41055.34
611.84	39962.31
612.00	39931.88
612.15	40135.51
612.31	40208.06
612.46	40268.92
612.62	40371.90
612.77	40800.22
612.92	40701.92
613.08	39824.22
613.23	39363.13
613.39	38274.78
613.54	38164.78
613.69	38897.36
613.85	39068.22
614.00	39395.90
614.15	39152.48
614.31	39592.50
614.46	39824.22
614.62	39676.76
614.77	39501.22
614.92	39328.02
615.08	39351.43
615.23	38913.75
615.38	39124.40
615.54	38326.27
615.69	37844.12
615.84	36254.90
616.00	36423.42
616.15	36683.22
616.30	37198.13
616.46	36882.16
616.61	37109.19
616.76	37401.76
616.92	37359.63
617.07	37996.26
617.22	37682.62
617.37	38094.56
617.53	38511.17
617.68	38361.38
617.83	38548.62
617.99	38700.76
618.14	38534.58
618.29	38258.40
618.45	37586.66
618.60	37734.12
618.75	37434.53
618.90	37144.30
619.06	37347.93
619.21	37713.05
619.36	38127.33
619.51	37820.72
619.67	37111.53
619.82	37479.00
619.97	37390.06
620.12	37415.80
620.28	37607.73
620.43	37961.15
620.58	38064.13
620.73	37535.17
620.89	37001.53
621.04	36638.75
621.19	36369.58
621.34	36240.86
621.49	36018.50
621.65	35985.74
621.80	36580.23
621.95	36135.53
622.10	36891.52
622.25	36376.61
622.41	35894.46
622.56	35737.64
622.71	35360.81
622.86	35168.89
623.01	35576.14
623.16	35693.17
623.32	35531.67
623.47	35875.73
623.62	35124.42
623.77	34976.97
623.92	34969.94
624.07	34668.02
624.23	33717.76
624.38	34153.10
624.53	34136.71
624.68	34211.61
624.83	34373.11
624.98	33736.48
625.13	33439.23
625.29	33743.50
625.44	33450.94
625.59	33369.02
625.74	33860.53
625.89	34134.37
626.04	33706.05
626.19	34150.76
626.34	34143.74
626.49	33949.47
626.65	33638.18
626.80	34132.03
626.95	33509.45
627.10	33514.13
627.25	33046.02
627.40	32187.05
627.55	31398.29
627.70	30841.24
627.85	31618.30
628.00	31779.79
628.15	32449.19
628.30	32102.79
628.45	32898.57
628.60	32367.27
628.76	32463.23
628.91	32341.52
629.06	32306.41
629.21	32107.47
629.36	31803.20
629.51	31728.30
629.66	31285.94
629.81	30824.86
629.96	30946.56
630.11	31395.95
630.26	32264.28
630.41	32112.15
630.56	32037.25
630.71	32006.83
630.86	31924.91
631.01	31323.39
631.16	31061.25
631.31	31192.32
631.46	30080.56
631.61	30417.60
631.76	30974.65
631.91	30719.53
632.06	31164.23
632.21	31531.70
632.36	31370.20
632.51	31145.51
632.66	31391.26
632.81	31515.31
632.96	31440.42
633.10	31009.76
633.25	30794.43
633.40	30834.22
633.55	30756.98
633.70	30558.03
633.85	30817.83
634.00	30504.20
634.15	30806.13
634.30	30436.33
634.45	30539.31
634.60	31079.97
634.75	30890.39
634.90	30749.96
635.05	30637.61
635.19	30501.86
635.34	30597.82
635.49	30480.80
635.64	30338.02
635.79	29827.79
635.94	30146.10
636.09	30223.34
636.24	29720.12
636.39	30071.20
636.53	30506.54
636.68	30499.52
636.83	30436.33
636.98	30707.83
637.13	30529.95
637.28	30672.72
637.43	30679.74
637.57	30237.38
637.72	30024.39
637.87	29743.53
638.02	29881.62
638.17	30178.87
638.32	30047.80
638.46	30211.64
638.61	29783.32
638.76	29614.80
638.91	29642.88
639.06	29628.84
639.20	28893.91
639.35	29195.84
639.50	28629.43
639.65	28615.39
639.80	28589.64
639.94	28769.86
640.09	29242.65
640.24	29064.77
640.39	28973.49
640.54	28484.32
640.68	28645.82
640.83	28343.89
640.98	28245.58
641.13	27824.29
641.27	28250.27
641.42	28374.31
641.57	27992.81
641.72	28231.54
641.86	27943.66
642.01	28023.23
642.16	28458.57
642.31	28041.96
642.45	28503.04
642.60	28271.33
642.75	28400.06
642.90	27798.54
643.04	27793.86
643.19	27583.21
643.34	27641.73
643.48	27721.30
643.63	27393.63
643.78	27562.15
643.93	28252.61
644.07	28463.25
644.22	28048.98
644.37	27777.48
644.51	27969.40
644.66	27363.20
644.81	27091.70
644.95	27426.40
645.10	27089.36
645.25	26787.43
645.39	26710.19
645.54	26801.47
645.69	26441.03
645.83	26164.85
645.98	25940.16
646.13	25961.22
646.27	26036.12
646.42	26370.82
646.57	25933.14
646.71	26153.15
646.86	26307.62
647.00	26064.21
647.15	25961.22
647.30	25678.02
647.44	25820.79
647.59	25340.98
647.74	25352.68
647.88	25156.08
648.03	25504.82
648.17	25181.82
648.32	25671.00
648.47	25923.77
648.61	25495.46
648.76	25336.30
648.90	24812.02
649.05	24292.42
649.20	23384.29
649.34	23758.78
649.49	24013.90
649.63	24222.20
649.78	24610.73
649.92	24865.85
650.07	25631.21
650.21	25546.95
650.36	25530.56
650.51	25731.85
650.65	25970.58
650.80	25675.68
650.94	25411.20
651.09	25151.40
651.23	24297.10
651.38	23852.40
651.52	24041.98
651.67	24170.71
651.81	24594.35
651.96	24645.84
652.10	24479.66
652.25	24975.86
652.39	24882.24
652.54	25092.88
652.68	24854.15
652.83	24793.29
652.97	24915.00
653.12	24575.62
653.26	24428.17
653.41	25010.96
653.55	25048.41
653.70	24435.19
653.84	24601.37
653.99	24224.54
654.13	23941.34
654.27	23271.95
654.42	23449.83
654.56	23562.17
654.71	23023.85
654.85	23346.84
655.00	22934.91
655.14	22869.37
655.29	22265.52
655.43	22232.75
655.57	21067.16
655.72	19847.74
655.86	18422.36
656.01	17312.94
656.15	17432.31
656.30	18579.17
656.44	19499.00
656.58	20355.64
656.73	21113.97
656.87	21366.75
657.01	21792.73
657.16	22305.31
657.30	22445.74
657.45	22946.61
657.59	23138.54
657.73	22817.88
657.88	22813.20
658.02	22888.10
658.16	22745.33
658.31	22883.42
658.45	23035.55
658.60	22647.02
658.74	22970.02
658.88	22551.06
659.03	21965.93
659.17	22415.31
659.31	22015.08
659.46	22045.51
659.60	22609.58
659.74	22700.86
659.89	22595.53
660.03	23098.75
660.17	22618.94
660.32	22675.11
660.46	22628.30
660.60	22429.35
660.74	22455.10
660.89	22499.57
661.03	22174.24
661.17	21963.59
661.32	22052.53
661.46	22251.47
661.60	22429.35
661.74	22291.26
661.89	22387.22
662.03	21968.27
662.17	22298.28
662.31	21914.44
662.46	22307.65
662.60	21834.86
662.74	21586.76
662.88	21556.33
663.03	21350.37
663.17	21130.36
663.31	21359.73
663.45	21252.06
663.60	21132.70
663.74	21298.88
663.88	21483.78
664.02	20996.95
664.17	21319.94
664.31	21359.73
664.45	21488.46
664.59	21212.28
664.73	21380.79
664.88	21418.24
665.02	21120.99
665.16	21303.56
665.30	21092.91
665.44	21207.59
665.59	20847.15
665.73	20767.57
665.87	20442.24
666.01	20243.29
666.15	20519.48
666.29	20201.16
666.44	20496.07
666.58	19847.74
666.72	20341.60
666.86	20400.11
667.00	20751.19
667.14	20079.46
667.28	20231.59
667.43	19948.39
667.57	19737.74
667.71	19932.00
667.85	19613.69
667.99	19517.73
668.13	19906.26
668.27	19873.49
668.41	19903.92
668.56	19690.93
668.70	20002.22
668.84	19531.77
668.98	19822.00
669.12	19775.19
669.26	19702.63
669.40	19386.66
669.54	19601.99
669.68	19447.51
669.82	19194.73
669.96	19131.54
670.10	19058.98
670.25	19225.16
670.39	19033.24
670.53	19042.60
670.67	18876.42
670.81	18810.89
670.95	18946.64
671.09	18602.58
671.23	18321.71
671.37	18347.46
671.51	18216.39
671.65	18368.52
671.79	18427.04
671.93	18321.71
672.07	18618.96
672.21	18530.02
672.35	18176.60
672.49	18286.61
672.63	18101.70
672.77	18073.62
672.91	18082.98
673.05	17741.26
673.19	18090.00
673.33	17577.42
673.47	18085.32
673.61	17788.07
673.75	17727.22
673.89	17935.53
674.03	17715.51
674.17	17862.97
674.31	17479.12
674.45	17488.48
674.59	17287.20
674.73	17394.86
674.87	17322.30
675.01	17125.70
675.15	17170.17
675.29	17034.42
675.43	16917.39
675.56	17207.62
675.70	16924.41
675.84	17146.76
675.98	16627.17
676.12	17184.21
676.26	16945.48
676.40	16835.47
676.54	17099.95
676.68	16833.13
676.82	16278.43
676.96	16376.73
677.10	16690.36
677.23	16732.49
677.37	16388.43
677.51	16350.98
677.65	16636.53
677.79	16170.76
677.93	16137.99
678.07	16006.92
678.21	15819.68
678.34	15716.70
678.48	15864.15
678.62	15805.64
678.76	15487.32
678.90	15623.08
679.04	15447.54
679.18	15564.56
679.31	15681.59
679.45	15564.56
679.59	15557.54
679.73	15360.94
679.87	15286.04
680.00	15297.74
680.14	15384.34
680.28	15070.71
680.42	14965.39
680.56	14843.68
680.70	14949.00
680.83	14869.42
680.97	14792.19
681.11	14530.05
681.25	14803.89
681.39	14366.21
681.52	14586.22
681.66	14675.16
681.80	14738.35
681.94	14244.50
682.07	14801.55
682.21	14281.95
682.35	14090.02
682.49	14242.16
682.62	14101.73
682.76	13870.01
682.90	13685.11
683.04	13980.02
683.17	13891.08
683.31	13935.55
683.45	13902.78
683.59	13776.39
683.72	13366.80
683.86	13053.17
684.00	13179.56
684.13	13139.77
684.27	13261.48
684.41	13483.83
684.55	13273.18
684.68	13114.02
684.82	13067.21
684.96	12961.89
685.09	12975.93
685.23	13050.83
685.37	12535.91
685.50	12643.57
685.64	12681.02
685.78	12535.91
685.91	12538.25
686.05	12545.27
686.19	12035.03
686.32	11538.84
686.46	10176.65
686.60	9132.77
686.73	8512.53
686.87	8037.40
687.01	7868.88
687.14	7854.84
687.28	8107.62
687.42	8463.38
687.55	8940.85
687.69	9282.56
687.82	9984.73
687.96	10370.91
688.10	10223.46
688.23	10228.14
688.37	9930.89
688.50	9818.55
688.64	9701.52
688.78	9603.22
688.91	9430.02
689.05	9376.19
689.18	9387.89
689.32	9252.14
689.46	9399.59
689.59	9301.29
689.73	9385.55
689.86	9750.67
690.00	9621.94
690.13	9579.81
690.27	9734.29
690.41	9474.49
690.54	9678.12
690.68	9729.61
690.81	9516.62
690.95	9797.48
691.08	9689.82
691.22	9605.56
691.35	9462.79
691.49	9764.72
691.62	9820.89
691.76	9809.19
691.89	9731.95
692.03	9750.67
692.16	9678.12
692.30	9792.80
692.43	9453.42
692.57	9329.38
692.70	9301.29
692.84	9252.14
692.97	9186.60
693.11	9193.62
693.24	9020.42
693.38	9165.54
693.51	9085.96
693.65	9055.53
693.78	8753.60
693.92	8842.54
694.05	8805.10
694.19	8655.30
694.32	8620.19
694.45	8879.99
694.59	8711.47
694.72	8704.45
694.86	8786.37
694.99	8559.34
695.13	8856.59
695.26	8634.24
695.39	8482.10
695.53	8362.73
695.66	8465.72
695.80	8287.84
695.93	8592.11
696.07	8486.78
696.20	8678.71
696.33	8760.63
696.47	8875.31
696.60	8723.18
696.73	8748.92
696.87	8688.07
697.00	8748.92
697.14	8753.60
697.27	8540.61
697.40	8336.99
697.54	8187.19
697.67	8145.06
697.80	7786.96
697.94	7826.75
698.07	7793.98
698.21	7899.31
698.34	7756.54
698.47	7700.36
698.61	7496.74
698.74	7522.48
698.87	7627.81
699.01	7566.95
699.14	7627.81
699.27	7555.25
699.40	7679.30
699.54	7702.70
699.67	7375.03
699.80	7360.98
699.94	7421.84
700.07	7358.64
700.20	7040.33
700.34	6995.86
700.47	6951.39
700.60	6979.48
700.73	7124.59
700.87	7145.66
701.00	7033.31
701.13	6902.24
701.26	6878.83
701.40	6897.56
701.53	6654.14
701.66	6862.45
701.79	7045.01
701.93	6855.43
702.06	6759.47
702.19	6817.98
702.32	6698.61
702.46	6630.74
702.59	6541.80
702.72	6581.59
702.85	6604.99
702.99	6682.23
703.12	6736.06
703.25	6541.80
703.38	6537.12
703.51	6445.84
703.65	6448.18
703.78	6181.35
703.91	6394.34
704.04	6436.47
704.17	6520.73
704.31	6452.86
704.44	6406.05
704.57	6424.77
704.70	6340.51
704.83	6305.40
704.96	6218.80
705.10	6155.61
705.23	6136.88
>>>>>End Processed Spectral Data<<<<<
