SpectraSuite Data File
++++++++++++++++++++++++++++++++++++
Date: Mon Oct 07 14:53:02 GMT-05:00 2013
User: price-jones
Dark Spectrum Present: No
Reference Spectrum Present: No
Number of Sampled Component Spectra: 1
Spectrometers: USB2+H05261
Integration Time (usec): 100000 (USB2+H05261)
Spectra Averaged: 1 (USB2+H05261)
Boxcar Smoothing: 0 (USB2+H05261)
Correct for Electrical Dark: No (USB2+H05261)
Strobe/Lamp Enabled: No (USB2+H05261)
Correct for Detector Non-linearity: No (USB2+H05261)
Correct for Stray Light: No (USB2+H05261)
Number of Pixels in Processed Spectrum: 2048
>>>>>Begin Processed Spectral Data<<<<<
365.73	0.00
365.92	0.00
366.12	0.00
366.32	0.00
366.52	0.00
366.72	0.00
366.91	0.00
367.11	0.00
367.31	0.00
367.51	0.00
367.70	0.00
367.90	0.00
368.10	0.00
368.30	0.00
368.49	0.00
368.69	0.00
368.89	0.00
369.09	0.00
369.28	0.00
369.48	0.00
369.68	0.00
369.87	0.00
370.07	0.00
370.27	0.00
370.47	454.06
370.66	2803.96
370.86	3239.30
371.06	3471.01
371.25	3609.11
371.45	3059.08
371.65	3066.10
371.84	2750.13
372.04	2906.95
372.24	3155.04
372.44	3316.54
372.63	3166.74
372.83	3159.72
373.03	2616.72
373.22	2450.54
373.42	2527.78
373.62	3105.89
373.81	3375.05
374.01	3243.98
374.21	2935.03
374.40	2644.81
374.60	2942.05
374.79	3141.00
374.99	3758.90
375.19	3995.29
375.38	3913.38
375.58	3655.92
375.78	3655.92
375.97	3735.50
376.17	3918.06
376.37	3997.64
376.56	3995.29
376.76	4271.48
376.95	4484.47
377.15	4802.78
377.35	4999.38
377.54	5149.18
377.74	5378.55
377.93	5259.18
378.13	5242.80
378.33	5043.85
378.52	4538.30
378.72	4475.10
378.91	4266.80
379.11	4285.52
379.31	3936.78
379.50	3920.40
379.70	4440.00
379.89	4887.04
380.09	5039.17
380.28	5193.65
380.48	5191.31
380.68	5188.97
380.87	4999.38
381.07	4596.81
381.26	4287.86
381.46	4135.73
381.65	3918.06
381.85	3786.99
382.04	3557.61
382.24	3536.55
382.43	3190.15
382.63	3183.13
382.83	3272.07
383.02	3206.53
383.22	3204.19
383.41	3222.92
383.61	3405.48
383.80	3859.54
384.00	4353.40
384.19	4940.87
384.39	5212.37
384.58	5205.35
384.78	5125.77
384.97	5088.32
385.17	4727.88
385.36	4561.70
385.56	4290.20
385.75	4411.91
385.95	4975.98
386.14	5320.04
386.34	5535.37
386.53	5116.41
386.72	4816.82
386.92	4959.60
387.11	5123.43
387.31	5387.91
387.50	5277.91
387.70	5008.75
387.89	5146.84
388.09	5027.47
388.28	4912.78
388.48	5135.14
388.67	5533.03
388.86	6157.95
389.06	6572.22
389.25	7054.37
389.45	7138.63
389.64	6923.30
389.84	6881.18
390.03	6644.78
390.22	6932.67
390.42	6998.20
390.61	7613.76
390.81	8205.92
391.00	8046.76
391.19	7920.37
391.39	7833.77
391.58	7335.24
391.78	6759.47
391.97	6663.51
392.16	6307.74
392.36	5586.86
392.55	4662.35
392.75	3522.51
392.94	2960.78
393.13	2899.92
393.33	3485.06
393.52	4512.55
393.71	5453.45
393.91	6289.02
394.10	6590.95
394.29	7389.07
394.49	8037.40
394.68	8713.81
394.88	8432.95
395.07	8554.66
395.26	8772.33
395.46	8575.72
395.65	8011.65
395.84	6977.14
396.04	5865.38
396.23	4800.44
396.42	3953.16
396.62	3817.41
396.81	4545.32
397.00	5750.70
397.19	7227.57
397.39	8713.81
397.58	9671.09
397.77	10394.32
397.97	10619.01
398.16	10759.44
398.35	11014.56
398.55	11382.03
398.74	11800.98
398.93	11974.18
399.12	11857.15
399.32	11304.79
399.51	11756.51
399.70	12336.96
399.90	12322.92
400.09	12421.22
400.28	12463.35
400.47	12437.61
400.67	13118.70
400.86	13383.18
401.05	13488.51
401.24	13453.40
401.44	13982.36
401.63	13549.36
401.82	13973.00
402.01	13745.97
402.21	14031.51
402.40	13900.44
402.59	13586.81
402.78	12865.92
402.97	12575.70
403.17	12882.31
403.36	14031.51
403.55	14230.46
403.74	14626.01
403.93	14155.56
404.13	13263.82
404.32	12507.82
404.51	13254.45
404.70	14406.00
404.89	14375.57
405.09	13956.61
405.28	13671.07
405.47	13551.70
405.66	13715.54
405.85	13214.66
406.05	12922.10
406.24	12994.65
406.43	13532.98
406.62	14380.25
406.81	14125.13
407.00	13495.53
407.20	13268.50
407.39	13523.62
407.58	14153.22
407.77	14459.83
407.96	15080.07
408.15	15087.09
408.34	15260.29
408.54	16100.55
408.73	15932.03
408.92	15632.44
409.11	15496.69
409.30	14736.01
409.49	13626.60
409.68	12835.50
409.87	12617.83
410.07	13322.33
410.26	14429.40
410.45	15459.24
410.64	15403.07
410.83	16149.70
411.02	16741.85
411.21	17097.61
411.40	16933.78
411.59	17069.53
411.78	17013.35
411.98	16739.51
412.17	17106.98
412.36	16489.07
412.55	16711.42
412.74	16194.17
412.93	16123.95
413.12	16091.18
413.31	17846.58
413.50	17813.82
413.69	18277.24
413.88	17369.12
414.07	17130.38
414.26	17345.71
414.45	17937.87
414.64	17853.61
414.83	17813.82
415.02	17696.79
415.22	17687.43
415.41	18031.49
415.60	18438.74
415.79	18902.17
415.98	19470.92
416.17	19875.83
416.36	19442.83
416.55	18792.16
416.74	18052.55
416.93	17710.83
417.12	18045.53
417.31	18106.38
417.50	18047.87
417.69	18867.06
417.88	18974.72
418.07	18649.39
418.26	18377.89
418.45	18270.22
418.64	19314.10
418.83	19829.02
419.02	19225.16
419.21	19274.31
419.39	18487.89
419.58	17802.11
419.77	17921.48
419.96	18431.72
420.15	19562.20
420.34	20257.34
420.53	20910.35
420.72	21687.40
420.91	21259.09
421.10	20727.78
421.29	20308.83
421.48	19946.05
421.67	21142.06
421.86	20458.62
422.05	18998.13
422.24	16786.32
422.43	17053.14
422.61	19288.35
422.80	20362.66
422.99	20266.70
423.18	19356.23
423.37	19007.49
423.56	19281.33
423.75	19604.33
423.94	19943.70
424.13	18773.44
424.32	18773.44
424.50	19117.50
424.69	18911.53
424.88	18941.96
425.07	19037.92
425.26	18785.14
425.45	18747.69
425.64	18169.58
425.83	18420.02
426.01	19653.48
426.20	19410.06
426.39	19613.69
426.58	17841.90
426.77	17003.99
426.96	16372.05
427.15	16849.52
427.33	18448.10
427.52	18853.02
427.71	19290.70
427.90	18930.25
428.09	18860.04
428.28	18307.67
428.46	17586.79
428.65	17542.32
428.84	17965.95
429.03	17921.48
429.22	17315.28
429.40	16149.70
429.59	14516.00
429.78	12847.20
429.97	13137.43
430.16	13355.10
430.34	13444.04
430.53	13327.01
430.72	13647.66
430.91	15161.99
431.10	17823.18
431.28	21179.51
431.47	22780.43
431.66	22916.19
431.85	20460.96
432.03	19049.62
432.22	18167.24
432.41	18778.12
432.60	21287.17
432.79	21923.80
432.97	22560.42
433.16	21909.75
433.35	20063.07
433.54	17846.58
433.72	16844.84
433.91	17692.11
434.10	19599.65
434.28	20879.92
434.47	22253.81
434.66	21551.65
434.85	21345.69
435.03	21333.98
435.22	21811.45
435.41	23058.96
435.59	23073.00
435.78	23199.39
435.97	23817.29
436.16	24088.79
436.34	23288.33
436.53	23016.83
436.72	23082.36
436.90	21876.99
437.09	22005.72
437.28	21570.38
437.46	22506.59
437.65	22113.38
437.84	20367.34
438.02	19351.55
438.21	18878.76
438.40	19894.55
438.58	21565.70
438.77	22431.69
438.96	22670.43
439.14	23555.15
439.33	24168.37
439.52	24388.38
439.70	23793.89
439.89	23454.51
440.08	22544.04
440.26	22703.20
440.45	23510.68
440.63	25029.69
440.82	26274.85
441.01	25771.64
441.19	25369.07
441.38	26066.55
441.57	27185.32
441.75	27056.59
441.94	27737.69
442.12	27285.97
442.31	27742.37
442.50	27674.49
442.68	26927.86
442.87	26925.52
443.05	26319.32
443.24	27178.30
443.43	27648.75
443.61	27798.54
443.80	28802.63
443.98	26841.26
444.17	26595.51
444.35	28053.66
444.54	29010.94
444.73	28669.22
444.91	27417.04
445.10	26389.54
445.28	25813.77
445.47	25041.39
445.65	25200.55
445.84	25741.21
446.02	26801.47
446.21	26759.34
446.39	27150.21
446.58	27295.33
446.77	27793.86
446.95	28446.87
447.14	28882.21
447.32	29315.21
447.51	28720.71
447.69	27461.51
447.88	27297.67
448.06	27915.57
448.25	28346.23
448.43	28315.80
448.62	27793.86
448.80	27501.29
448.99	28009.19
449.17	28510.07
449.36	28584.96
449.54	29039.03
449.73	29376.06
449.91	30300.58
450.10	31475.52
450.28	31885.12
450.46	31150.19
450.65	31094.02
450.83	30831.88
451.02	30209.29
451.20	30366.11
451.39	30043.12
451.57	29890.98
451.76	30054.82
451.94	29687.36
452.13	29046.05
452.31	28018.55
452.49	26719.56
452.68	26834.24
452.86	27061.27
453.05	27704.92
453.23	27960.04
453.42	28676.24
453.60	29465.00
453.78	29649.91
453.97	29446.28
454.15	29280.10
454.34	28828.38
454.52	29221.59
454.70	28652.84
454.89	28872.85
455.07	28975.83
455.26	29546.92
455.44	30394.20
455.62	31278.92
455.81	31119.76
455.99	31131.47
456.17	30293.55
456.36	30403.56
456.54	31328.07
456.73	31384.24
456.91	32065.34
457.09	32313.44
457.28	32795.59
457.46	31630.00
457.64	31152.53
457.83	30717.19
458.01	29722.46
458.19	30478.46
458.38	30422.28
458.56	31922.57
458.74	31555.10
458.93	31185.30
459.11	30639.95
459.29	30424.62
459.48	30780.39
459.66	30764.00
459.84	31145.51
460.03	31215.72
460.21	31428.71
460.39	32165.98
460.57	32215.13
460.76	32624.73
460.94	32378.97
461.12	32224.50
461.31	32374.29
461.49	31978.74
461.67	32156.62
461.85	33259.01
462.04	32863.46
462.22	33441.57
462.40	33528.17
462.59	32842.40
462.77	33219.22
462.95	33046.02
463.13	32449.19
463.32	32484.30
463.50	32404.72
463.68	32313.44
463.86	32182.37
464.05	32011.51
464.23	30944.22
464.41	31124.44
464.59	30424.62
464.78	32252.58
464.96	32238.54
465.14	31564.46
465.32	32315.78
465.50	33345.61
465.69	33860.53
465.87	32645.79
466.05	31922.57
466.23	30223.34
466.41	29668.63
466.60	31110.40
466.78	30838.90
466.96	31440.42
467.14	31620.64
467.32	32308.76
467.51	32411.74
467.69	30885.71
467.87	31566.81
468.05	31931.93
468.23	31971.72
468.41	32175.34
468.60	32521.74
468.78	32488.98
468.96	31924.91
469.14	32861.12
469.32	32725.37
469.50	31587.87
469.69	31552.76
469.87	31185.30
470.05	31112.74
470.23	31077.63
470.41	31681.49
470.59	31936.61
470.77	31527.02
470.95	32533.45
471.14	32669.20
471.32	32645.79
471.50	34656.31
471.68	34953.56
471.86	35051.86
472.04	34756.96
472.22	35496.56
472.40	33399.44
472.58	33256.67
472.77	32919.63
472.95	33874.57
473.13	34579.07
473.31	33771.59
473.49	33804.36
473.67	34745.25
473.85	34541.63
474.03	35395.92
474.21	35683.81
474.39	35878.07
474.57	36112.13
474.75	35976.37
474.93	35800.83
475.12	34859.94
475.30	35239.11
475.48	35194.64
475.66	35999.78
475.84	35386.56
476.02	35037.82
476.20	34675.04
476.38	35220.38
476.56	36383.63
476.74	36678.54
476.92	36744.07
477.10	37528.15
477.28	38274.78
477.46	38520.54
477.64	39058.86
477.82	38958.22
478.00	38946.51
478.18	38693.74
478.36	38361.38
478.54	38485.43
478.72	38785.02
478.90	39503.56
479.08	40582.55
479.26	41436.84
479.44	41146.62
479.62	41038.95
479.80	40727.66
479.98	40898.52
480.16	41343.22
480.34	40825.96
480.52	41443.87
480.70	41720.05
480.88	41680.26
481.06	42698.39
481.24	43056.50
481.41	43878.02
481.59	43920.15
481.77	44020.80
481.95	43026.07
482.13	42983.94
482.31	43395.87
482.49	43540.99
482.67	43391.19
482.85	43934.20
483.03	44484.22
483.21	45261.28
483.39	45104.46
483.57	44215.06
483.74	44327.41
483.92	44194.00
484.10	44624.65
484.28	45588.95
484.46	45890.88
484.64	46185.79
484.82	45326.81
485.00	44289.96
485.18	44603.59
485.35	42602.43
485.53	39335.04
485.71	36252.56
485.89	35803.17
486.07	37675.60
486.25	41020.23
486.43	43299.91
486.61	43957.60
486.78	43545.67
486.96	43938.88
487.14	45399.37
487.32	46887.95
487.50	47842.89
487.68	48933.58
487.85	49013.16
488.03	49209.76
488.21	48765.06
488.39	47955.24
488.57	47133.71
488.75	46653.90
488.92	48261.85
489.10	50396.42
489.28	51868.61
489.46	52451.41
489.64	51662.64
489.81	52465.45
489.99	51805.42
490.17	51990.32
490.35	52589.50
490.53	51805.42
490.70	51363.06
490.88	51611.15
491.06	52495.88
491.24	52608.22
491.41	51203.90
491.59	49614.68
491.77	49130.19
491.95	49858.09
492.13	50946.44
492.30	52350.76
492.48	53492.94
492.66	53956.37
492.84	54031.27
493.01	53628.69
493.19	53279.96
493.37	52748.65
493.54	52247.78
493.72	53446.13
493.90	54377.67
494.08	54969.82
494.25	55416.86
494.43	55561.98
494.61	55772.63
494.79	55791.35
494.96	55601.77
495.14	54897.27
495.32	53977.43
495.49	53661.46
495.67	54571.93
495.85	55945.83
496.02	56479.47
496.20	56287.54
496.38	55543.25
496.55	55671.98
496.73	56317.97
496.91	55950.51
497.09	56563.73
497.26	56935.87
497.44	56573.09
497.62	55868.59
497.79	55318.56
497.97	53621.67
498.14	54323.83
498.32	55224.94
498.50	56163.50
498.67	56645.65
498.85	56547.34
499.03	56587.13
499.20	56989.70
499.38	56921.83
499.56	56786.08
499.73	56238.39
499.91	55838.16
500.08	55269.41
500.26	55121.96
500.44	55325.58
500.61	56102.64
500.79	55791.35
500.97	55231.96
501.14	55178.13
501.32	55229.62
501.49	55182.81
501.67	55117.28
501.84	55901.36
502.02	55992.64
502.20	56374.14
502.37	56498.19
502.55	56537.98
502.72	57251.84
502.90	57483.56
503.07	57289.29
503.25	56865.66
503.43	56151.79
503.60	55320.90
503.78	54759.17
503.95	55398.14
504.13	56757.99
504.30	57446.11
504.48	57219.08
504.65	56713.52
504.83	56886.72
505.01	57687.18
505.18	57675.48
505.36	58583.61
505.53	58480.63
505.71	58827.02
505.88	58637.44
506.06	58216.14
506.23	57925.92
506.41	57368.87
506.58	57623.99
506.76	57722.29
506.93	57598.24
507.11	57516.32
507.28	57764.42
507.46	56889.06
507.63	56514.58
507.81	56116.68
507.98	56900.76
508.16	57366.53
508.33	57724.63
508.50	58155.29
508.68	58410.41
508.85	58876.18
509.03	58820.00
509.20	58773.19
509.38	58103.80
509.55	57221.42
509.73	57616.97
509.90	57977.41
510.08	58291.04
510.25	58305.09
510.42	57801.87
510.60	57785.49
510.77	58190.40
510.95	58635.10
511.12	58822.34
511.30	59133.63
511.47	59206.19
511.64	59217.89
511.82	58972.14
511.99	58174.02
512.17	57691.86
512.34	57509.30
512.51	57680.16
512.69	57790.17
512.86	57811.23
513.04	58307.43
513.21	58274.66
513.38	57921.24
513.56	57195.67
513.73	56591.81
513.90	56999.07
514.08	57116.09
514.25	57322.06
514.43	57783.15
514.60	57808.89
514.77	57911.88
514.95	57949.32
515.12	57900.17
515.29	58127.20
515.47	58562.54
515.64	58733.40
515.81	58468.92
515.99	57694.21
516.16	56205.62
516.33	53766.79
516.51	52439.70
516.68	51587.75
516.85	51313.90
517.03	52041.81
517.20	54651.51
517.37	57195.67
517.54	58213.80
517.72	57448.45
517.89	54876.20
518.06	52802.49
518.24	53483.58
518.41	55650.92
518.58	56655.01
518.75	56718.20
518.93	56996.73
519.10	57027.15
519.27	57317.38
519.45	57766.76
519.62	58405.73
519.79	58810.64
519.96	58262.96
520.14	57918.90
520.31	56830.55
520.48	57275.25
520.65	57560.79
520.83	58436.16
521.00	58871.49
521.17	58319.13
521.34	58192.74
521.52	58335.51
521.69	58747.45
521.86	59192.15
522.03	58962.78
522.20	57717.61
522.38	56790.76
522.55	56823.53
522.72	57649.74
522.89	57689.52
523.07	57663.78
523.24	58099.12
523.41	58958.09
523.58	59189.81
523.75	59641.53
523.92	59449.61
524.10	59372.37
524.27	59318.54
524.44	59124.27
524.61	58974.48
524.78	59072.78
524.96	58768.51
525.13	58827.02
525.30	59119.59
525.47	59388.75
525.64	59473.01
525.81	58604.67
525.98	57429.72
526.16	55866.25
526.33	55131.32
526.50	55037.70
526.67	54665.55
526.84	55353.67
527.01	56231.37
527.18	56973.32
527.36	58089.76
527.53	58887.88
527.70	58939.37
527.87	58412.75
528.04	58085.07
528.21	58731.06
528.38	59084.48
528.55	59716.43
528.72	59990.27
528.89	60088.57
529.07	59702.38
529.24	59187.47
529.41	58471.26
529.58	58115.50
529.75	58019.54
529.92	58473.60
530.09	59299.81
530.26	59323.22
530.43	59852.18
530.60	59686.00
530.77	59922.40
530.94	59877.93
531.11	59639.19
531.28	59255.34
531.46	58990.86
531.63	59025.97
531.80	59028.31
531.97	58468.92
532.14	57813.57
532.31	56830.55
532.48	56259.46
532.65	56643.30
532.82	57532.71
532.99	58394.03
533.16	58628.08
533.33	59295.13
533.50	58944.05
533.67	58237.21
533.84	58052.31
534.01	58148.27
534.18	58466.58
534.35	58431.47
534.52	58379.98
534.69	58674.89
534.86	58932.35
535.03	59253.00
535.20	59707.07
535.37	59994.95
535.54	60158.79
535.71	59667.28
535.88	59327.90
536.05	58663.19
536.22	58302.74
536.38	58213.80
536.55	57588.88
536.72	57006.09
536.89	57193.33
537.06	57827.62
537.23	58740.42
537.40	59082.14
537.57	58901.92
537.74	58693.61
537.91	58688.93
538.08	58759.15
538.25	58812.98
538.42	58834.05
538.59	58731.06
538.75	58127.20
538.92	58122.52
539.09	57673.14
539.26	57712.93
539.43	57446.11
539.60	57506.96
539.77	57766.76
539.94	57619.31
540.11	56875.02
540.28	56432.66
540.44	56406.91
540.61	56706.50
540.78	56949.92
540.95	57368.87
541.12	57757.40
541.29	58071.03
541.46	58225.51
541.62	58443.18
541.79	58150.61
541.96	57403.98
542.13	57626.33
542.30	57776.12
542.47	57865.06
542.63	57743.36
542.80	57579.52
542.97	57841.66
543.14	57476.54
543.31	57602.92
543.48	58188.06
543.64	59072.78
543.81	59236.62
543.98	58911.28
544.15	58005.50
544.32	57645.05
544.48	57773.78
544.65	58358.92
544.82	58419.77
544.99	58054.65
545.16	57900.17
545.32	57719.95
545.49	58272.32
545.66	58817.66
545.83	58365.94
546.00	58056.99
546.16	57656.76
546.33	57764.42
546.50	57846.34
546.67	58445.52
546.83	57853.36
547.00	57670.80
547.17	57085.67
547.34	56793.10
547.50	56893.74
547.67	57162.90
547.84	57247.16
548.00	57523.35
548.17	58064.01
548.34	57806.55
548.51	57869.75
548.67	58078.05
548.84	58087.42
549.01	58089.76
549.18	57733.99
549.34	57591.22
549.51	57726.97
549.68	57792.51
549.84	57331.42
550.01	57483.56
550.18	57317.38
550.34	57537.39
550.51	57272.91
550.68	57504.62
550.84	56858.63
551.01	57153.54
551.18	57219.08
551.34	57165.24
551.51	57661.44
551.68	57921.24
551.84	57944.64
552.01	57755.06
552.18	57584.20
552.34	56720.54
552.51	56343.72
552.68	56488.83
552.84	57102.05
553.01	57106.73
553.18	56956.94
553.34	57277.59
553.51	57343.12
553.67	57579.52
553.84	57846.34
554.01	57364.19
554.17	57539.73
554.34	57242.48
554.51	57453.13
554.67	58066.35
554.84	57537.39
555.00	57275.25
555.17	57207.37
555.33	57249.50
555.50	57036.51
555.67	57233.12
555.83	57095.03
556.00	56736.93
556.16	56512.23
556.33	56598.83
556.50	56222.01
556.66	56147.11
556.83	55798.37
556.99	56186.90
557.16	56261.80
557.32	56339.04
557.49	56734.59
557.65	56598.83
557.82	56573.09
557.98	56566.07
558.15	55941.14
558.32	55047.06
558.48	54443.20
558.65	54782.58
558.81	55159.41
558.98	55353.67
559.14	55627.51
559.31	55538.57
559.47	55749.22
559.64	55182.81
559.80	54817.69
559.97	54993.23
560.13	55671.98
560.30	56467.76
560.46	56683.09
560.63	56814.16
560.79	57076.30
560.96	56552.02
561.12	55348.99
561.29	54733.43
561.45	54845.77
561.61	55421.55
561.78	55842.84
561.94	55798.37
562.11	55339.63
562.27	55398.14
562.44	55781.99
562.60	55903.70
562.77	56158.81
562.93	55934.12
563.10	55781.99
563.26	55491.76
563.42	55372.39
563.59	55271.75
563.75	55341.97
563.92	55374.73
564.08	55276.43
564.24	55597.09
564.41	55524.53
564.57	55503.46
564.74	55386.44
564.90	55395.80
565.07	55051.74
565.23	54642.15
565.39	54181.06
565.56	53900.20
565.72	53666.14
565.88	54054.67
566.05	54344.90
566.21	54677.25
566.38	54583.63
566.54	54770.88
566.70	55044.72
566.87	55461.33
567.03	55632.19
567.19	55547.93
567.36	55065.78
567.52	55187.49
567.68	54979.18
567.85	54300.43
568.01	53944.67
568.17	53457.84
568.34	53284.64
568.50	53305.70
568.66	53682.53
568.83	53804.24
568.99	53904.88
569.15	54223.19
569.32	54031.27
569.48	53624.01
569.64	53813.60
569.81	53595.93
569.97	53371.24
570.13	53235.48
570.30	52533.32
570.46	52453.75
570.62	51437.95
570.78	51824.14
570.95	51959.89
571.11	53036.54
571.27	52708.86
571.43	53134.84
571.60	53572.52
571.76	53773.81
571.92	53930.62
572.09	54248.94
572.25	53829.98
572.41	54351.92
572.57	53797.21
572.74	53886.15
572.90	53532.73
573.06	53577.20
573.22	53607.63
573.38	53521.03
573.55	53123.14
573.71	53464.86
573.87	53279.96
574.03	53230.80
574.20	53284.64
574.36	53256.55
574.52	52746.31
574.68	52755.68
574.84	52360.12
575.01	51922.44
575.17	52037.13
575.33	52313.31
575.49	52397.57
575.65	52552.05
575.82	52278.21
575.98	52067.56
576.14	52383.53
576.30	52477.15
576.46	52795.46
576.62	52420.98
576.79	52638.65
576.95	52378.85
577.11	52135.43
577.27	52406.94
577.43	52355.44
577.59	52163.52
577.75	51604.13
577.92	50532.17
578.08	50714.73
578.24	50735.79
578.40	51201.56
578.56	51278.80
578.72	51236.67
578.88	51749.24
579.04	51849.89
579.21	51856.91
579.37	52083.94
579.53	52006.70
579.69	51917.76
579.85	52072.24
580.01	51849.89
580.17	51437.95
580.33	50815.37
580.49	51482.42
580.65	51604.13
580.82	51840.53
580.98	51894.36
581.14	51723.50
581.30	52055.85
581.46	51636.90
581.62	51906.06
581.78	52240.76
581.94	52156.50
582.10	52044.15
582.26	51854.57
582.42	52320.34
582.58	52196.29
582.74	52086.28
582.90	52364.81
583.06	52374.17
583.22	52069.90
583.38	51735.20
583.54	51980.96
583.70	52004.36
583.86	52032.45
584.02	51632.22
584.18	51966.91
584.34	51824.14
584.50	51224.96
584.66	51395.82
584.82	51075.17
584.98	51014.32
585.14	50497.06
585.30	50068.74
585.46	49806.60
585.62	49607.65
585.78	49769.15
585.94	50281.73
586.10	50384.71
586.26	50527.48
586.42	50679.62
586.58	51323.27
586.74	51166.45
586.90	50644.51
587.06	50609.40
587.22	50365.99
587.38	50050.02
587.54	50031.29
587.70	49839.37
587.86	48898.47
588.02	49177.00
588.18	48973.37
588.34	47838.21
588.49	45734.07
588.65	43772.70
588.81	43161.82
588.97	43693.12
589.13	42820.10
589.29	43002.66
589.45	44423.37
589.61	45923.65
589.77	46630.49
589.93	47428.62
590.08	48247.80
590.24	48367.17
590.40	48685.48
590.56	48673.78
590.72	48296.95
590.88	47999.71
591.04	47615.86
591.20	47707.14
591.35	47604.16
591.51	47973.96
591.67	48011.41
591.83	47999.71
591.99	47601.82
592.15	47983.32
592.31	48151.84
592.46	47997.37
592.62	47835.87
592.78	47496.49
592.94	47875.66
593.10	47969.28
593.26	48112.05
593.41	48762.72
593.57	48102.69
593.73	47470.75
593.89	47227.33
594.05	47255.42
594.20	46787.31
594.36	46422.19
594.52	46246.65
594.68	46185.79
594.84	46398.78
594.99	47091.58
595.15	46972.21
595.31	47210.95
595.47	46974.55
595.62	47327.97
595.78	47723.52
595.94	47487.13
596.10	47419.25
596.25	47468.40
596.41	47147.75
596.57	46651.56
596.73	47459.04
596.88	47178.18
597.04	47309.25
597.20	46625.81
597.36	45933.01
597.51	46700.71
597.67	46581.34
597.83	46553.26
597.99	46485.38
598.14	45902.59
598.30	45787.90
598.46	45724.71
598.61	45986.85
598.77	46319.20
598.93	46445.59
599.09	46316.86
599.24	46780.29
599.40	46476.02
599.56	46539.21
599.71	46803.69
599.87	46438.57
600.03	46316.86
600.18	46050.04
600.34	45584.27
600.50	45034.25
600.65	45731.73
600.81	45979.82
600.97	45359.58
601.12	45588.95
601.28	45607.68
601.44	44917.22
601.59	44914.88
601.75	44912.54
601.91	44701.89
602.06	44744.02
602.22	45228.51
602.37	45242.56
602.53	44978.07
602.69	46096.85
602.84	45502.35
603.00	45659.17
603.16	46127.28
603.31	46061.74
603.47	46263.03
603.62	45633.42
603.78	45705.98
603.94	45621.72
604.09	45364.26
604.25	45656.83
604.40	45041.27
604.56	45804.28
604.71	45762.15
604.87	45631.08
605.03	45116.17
605.18	45006.16
605.34	45024.89
605.49	44676.15
605.65	44802.53
605.80	44636.36
605.96	44390.60
606.12	44076.97
606.27	44156.55
606.43	44528.69
606.58	44718.28
606.74	44350.81
606.89	44488.90
607.05	44781.47
607.20	44788.49
607.36	43915.47
607.51	44100.37
607.67	43739.93
607.82	43597.16
607.98	43611.20
608.13	42904.36
608.29	43075.22
608.44	43269.48
608.60	42948.83
608.75	42953.51
608.91	43117.35
609.06	43702.48
609.22	43512.90
609.37	43274.16
609.53	43208.63
609.68	42471.36
609.84	41890.91
609.99	42199.86
610.15	41652.17
610.30	42148.37
610.46	42344.97
610.61	42827.12
610.76	43290.55
610.92	43194.59
611.07	43452.05
611.23	43480.13
611.38	43028.41
611.54	42916.06
611.69	42139.00
611.84	41675.58
612.00	41563.23
612.15	41081.08
612.31	41497.70
612.46	41371.31
612.62	41523.44
612.77	41867.50
612.92	42307.52
613.08	41291.73
613.23	40051.25
613.39	40109.76
613.54	39456.75
613.69	40421.05
613.85	40165.93
614.00	40755.75
614.15	40715.96
614.31	41024.91
614.46	41184.07
614.62	41453.23
614.77	40788.52
614.92	40924.27
615.08	40601.27
615.23	40596.59
615.38	40444.46
615.54	39707.19
615.69	38843.53
615.84	38178.82
616.00	38380.10
616.15	38462.02
616.30	38876.30
616.46	38478.41
616.61	38583.73
616.76	39007.37
616.92	38536.92
617.07	39288.23
617.22	39225.04
617.37	39761.02
617.53	40079.33
617.68	39732.93
617.83	39978.69
617.99	39969.33
618.14	39948.26
618.29	39950.60
618.45	39253.12
618.60	38398.83
618.75	38796.72
618.90	38836.51
619.06	39491.86
619.21	39096.31
619.36	39543.35
619.51	39695.49
619.67	39608.89
619.82	39026.09
619.97	39557.39
620.12	39009.71
620.28	39243.76
620.43	39379.51
620.58	39241.42
620.73	38913.75
620.89	38829.49
621.04	38632.88
621.19	38234.99
621.34	37844.12
621.49	37874.55
621.65	37411.12
621.80	38045.41
621.95	37591.34
622.10	38061.79
622.25	37879.23
622.41	37890.93
622.56	37308.14
622.71	37401.76
622.86	37024.93
623.01	36814.29
623.16	36994.51
623.32	36577.89
623.47	37125.58
623.62	36896.20
623.77	36655.13
623.92	36339.16
624.07	36172.98
624.23	36107.44
624.38	35676.79
624.53	35814.88
624.68	36046.59
624.83	35674.45
624.98	35732.96
625.13	35185.27
625.29	35117.40
625.44	35463.80
625.59	35599.55
625.74	35306.98
625.89	35688.49
626.04	35709.55
626.19	35847.64
626.34	35714.23
626.49	35606.57
626.65	35550.40
626.80	35693.17
626.95	35393.58
627.10	35023.78
627.25	34352.04
627.40	33535.20
627.55	33022.62
627.70	32458.55
627.85	32882.19
628.00	33144.33
628.15	34204.59
628.30	34258.42
628.45	34623.54
628.60	34232.68
628.76	34216.29
628.91	33933.09
629.06	33869.89
629.21	33797.34
629.36	33661.58
629.51	33357.32
629.66	33156.03
629.81	32334.50
629.96	33109.22
630.11	33567.96
630.26	33486.04
630.41	33610.09
630.56	33340.93
630.71	33750.52
630.86	33490.73
631.01	33111.56
631.16	33031.98
631.31	32491.32
631.46	31962.36
631.61	32142.58
631.76	32341.52
631.91	33149.01
632.06	32725.37
632.21	33008.58
632.36	33497.75
632.51	32971.13
632.66	33181.77
632.81	33376.04
632.96	32730.05
633.10	32858.78
633.25	32444.51
633.40	32407.06
633.55	32315.78
633.70	32194.07
633.85	32161.30
634.00	32165.98
634.15	32631.75
634.30	32411.74
634.45	32479.61
634.60	32620.05
634.75	32463.23
634.90	32346.20
635.05	32505.36
635.19	32212.79
635.34	32500.68
635.49	32299.39
635.64	31988.10
635.79	31592.55
635.94	31709.58
636.09	32020.87
636.24	31740.00
636.39	31927.25
636.53	31871.07
636.68	31721.28
636.83	32093.43
636.98	32264.28
637.13	32245.56
637.28	32713.67
637.43	32180.03
637.57	32004.49
637.72	31438.08
637.87	31681.49
638.02	31761.07
638.17	31789.16
638.32	31454.46
638.46	32257.26
638.61	31711.92
638.76	31321.05
638.91	31007.42
639.06	30925.50
639.20	31094.02
639.35	30852.94
639.50	30469.09
639.65	30689.10
639.80	30560.37
639.94	30637.61
640.09	30761.66
640.24	30607.19
640.39	30551.01
640.54	30012.69
640.68	30045.46
640.83	30019.71
640.98	29668.63
641.13	29848.85
641.27	30284.19
641.42	30188.23
641.57	29654.59
641.72	29858.21
641.86	29244.99
642.01	29706.08
642.16	30312.28
642.31	29975.24
642.45	30401.22
642.60	30050.14
642.75	29741.19
642.90	29890.98
643.04	29986.94
643.19	29996.31
643.34	29572.67
643.48	29177.12
643.63	29322.23
643.78	29570.33
643.93	29656.93
644.07	29947.15
644.22	30139.08
644.37	29598.41
644.51	29273.08
644.66	29235.63
644.81	29003.92
644.95	28931.36
645.10	28950.09
645.25	28676.24
645.39	28517.09
645.54	28535.81
645.69	28102.81
645.83	28011.53
645.98	27641.73
646.13	27688.54
646.27	28044.30
646.42	27857.06
646.57	27857.06
646.71	27964.72
646.86	27728.33
647.00	27538.74
647.15	27709.60
647.30	27407.67
647.44	27000.42
647.59	27147.87
647.74	27112.77
647.88	27112.77
648.03	26864.67
648.17	27061.27
648.32	27159.58
648.47	27632.36
648.61	27316.39
648.76	26969.99
648.90	26436.35
649.05	25673.34
649.20	25387.79
649.34	25275.45
649.49	25422.90
649.63	25888.67
649.78	26398.90
649.92	26829.56
650.07	26937.23
650.21	26820.20
650.36	27089.36
650.51	27873.44
650.65	27601.94
650.80	27669.81
650.94	26986.38
651.09	26536.99
651.23	26174.21
651.38	25802.07
651.52	25537.59
651.67	25905.05
651.81	26450.39
651.96	25907.39
652.10	26551.04
652.25	26347.41
652.39	26551.04
652.54	26415.29
652.68	26448.05
652.83	26169.53
652.97	25958.88
653.12	26426.99
653.26	26731.26
653.41	26735.94
653.55	26532.31
653.70	26597.85
653.84	26513.59
653.99	25832.49
654.13	25895.69
654.27	25532.90
654.42	25333.96
654.56	25067.14
654.71	25357.36
654.85	25113.95
655.00	24840.11
655.14	24416.47
655.29	24049.00
655.43	23637.07
655.57	22707.88
655.72	21256.75
655.86	19398.36
656.01	18693.86
656.15	18871.74
656.30	19892.21
656.44	20961.84
656.58	22537.02
656.73	22871.72
656.87	23255.56
657.01	23625.37
657.16	23969.43
657.30	24313.48
657.45	24851.81
657.59	24376.68
657.73	24779.25
657.88	24671.59
658.02	24673.93
658.16	24451.58
658.31	24496.05
658.45	24662.22
658.60	24435.19
658.74	24217.52
658.88	24128.58
659.03	23807.93
659.17	24049.00
659.31	24027.94
659.46	23716.65
659.60	24137.94
659.74	24350.93
659.89	24472.64
660.03	24332.21
660.17	24474.98
660.32	24226.89
660.46	24332.21
660.60	24027.94
660.74	23688.56
660.89	23817.29
661.03	23599.62
661.17	24116.88
661.32	24009.22
661.46	24088.79
661.60	24079.43
661.74	24442.21
661.89	24173.05
662.03	24166.03
662.17	23679.20
662.31	23440.47
662.46	23812.61
662.60	23707.29
662.74	23440.47
662.88	23087.04
663.03	22911.50
663.17	23140.88
663.31	23133.86
663.45	23056.62
663.60	23168.96
663.74	23234.50
663.88	23168.96
664.02	22941.93
664.17	22918.53
664.31	22476.16
664.45	23168.96
664.59	23087.04
664.73	23124.49
664.88	23019.17
665.02	23056.62
665.16	22857.67
665.30	22735.96
665.44	22623.62
665.59	22473.82
665.73	22125.08
665.87	22141.47
666.01	22045.51
666.15	21865.28
666.29	21963.59
666.44	21977.63
666.58	21607.83
666.72	21752.94
666.86	22232.75
667.00	22052.53
667.14	22012.74
667.28	21713.15
667.43	21937.84
667.57	21631.23
667.71	21443.99
667.85	21598.46
667.99	21624.21
668.13	21804.43
668.27	21701.45
668.41	21869.97
668.56	21631.23
668.70	21486.12
668.84	21139.72
668.98	21589.10
669.12	21240.36
669.26	21174.83
669.40	21268.45
669.54	20900.98
669.68	21329.30
669.82	21160.78
669.96	20868.22
670.10	20514.80
670.25	20877.58
670.39	20299.47
670.53	20343.94
670.67	20423.51
670.81	20472.67
670.95	20444.58
671.09	20418.83
671.23	19833.70
671.37	19793.91
671.51	20037.33
671.65	19826.68
671.79	19655.82
671.93	19810.29
672.07	20037.33
672.21	20016.26
672.35	19655.82
672.49	19707.31
672.63	19840.72
672.77	19548.15
672.91	19428.79
673.05	19278.99
673.19	19726.04
673.33	19260.27
673.47	19204.10
673.61	19557.52
673.75	19728.38
673.89	19723.69
674.03	19466.24
674.17	19164.31
674.31	19349.21
674.45	18965.36
674.59	18759.39
674.73	18881.10
674.87	18876.42
675.01	18520.66
675.15	18625.98
675.29	18789.82
675.43	18637.69
675.56	18731.31
675.70	18621.30
675.84	18602.58
675.98	18214.05
676.12	18047.87
676.26	18532.36
676.40	18141.49
676.54	18391.93
676.68	17935.53
676.82	17444.01
676.96	17715.51
677.10	18001.06
677.23	17776.37
677.37	17970.63
677.51	17593.81
677.65	17373.80
677.79	17628.92
677.93	17394.86
678.07	17469.76
678.21	17219.32
678.34	17303.58
678.48	16959.52
678.62	16657.59
678.76	17008.67
678.90	17242.73
679.04	17214.64
679.18	16994.63
679.31	16863.56
679.45	16833.13
679.59	16552.27
679.73	16634.19
679.87	16718.45
680.00	16491.41
680.14	16325.24
680.28	16231.62
680.42	16063.10
680.56	15957.77
680.70	16142.67
680.83	15950.75
680.97	15714.36
681.11	15917.98
681.25	15962.45
681.39	15960.11
681.52	15625.42
681.66	15925.00
681.80	15779.89
681.94	15709.68
682.07	15747.12
682.21	15721.38
682.35	15590.31
682.49	15365.62
682.62	15583.29
682.76	15262.63
682.90	15318.81
683.04	15129.22
683.17	15269.66
683.31	15138.58
683.45	14895.17
683.59	14654.09
683.72	14422.38
683.86	14263.22
684.00	14080.66
684.13	14185.99
684.27	14094.71
684.41	14148.54
684.55	14434.08
684.68	14298.33
684.82	14464.51
684.96	14499.62
685.09	13956.61
685.23	13722.56
685.37	13944.91
685.50	13797.46
685.64	13790.44
685.78	13752.99
685.91	13605.53
686.05	13446.38
686.19	13128.06
686.32	12409.52
686.46	10810.93
686.60	9530.66
686.73	9121.07
686.87	8498.49
687.01	8444.65
687.14	8566.36
687.28	9050.85
687.42	9261.50
687.55	9703.86
687.69	10263.25
687.82	10773.49
687.96	11180.74
688.10	11033.29
688.23	11140.95
688.37	10710.29
688.50	10579.22
688.64	10511.35
688.78	10176.65
688.91	10321.76
689.05	10296.02
689.18	10235.16
689.32	10197.71
689.46	10263.25
689.59	10356.87
689.73	10396.66
689.86	10289.00
690.00	10370.91
690.13	10391.98
690.27	10431.77
690.41	10721.99
690.54	10457.51
690.68	10588.58
690.81	10712.63
690.95	10604.97
691.08	10338.15
691.22	10516.03
691.35	10747.74
691.49	10745.40
691.62	10862.43
691.76	10583.90
691.89	10600.29
692.03	10471.56
692.16	10583.90
692.30	10506.66
692.43	10476.24
692.57	10127.50
692.70	10150.90
692.84	10244.52
692.97	10136.86
693.11	9769.40
693.24	9956.64
693.38	10080.69
693.51	9736.63
693.65	9844.29
693.78	9521.30
693.92	9635.99
694.05	9724.93
694.19	9415.98
694.32	9778.76
694.45	9530.66
694.59	9479.17
694.72	9472.15
694.86	9488.53
694.99	9558.75
695.13	9329.38
695.26	9357.46
695.39	9256.82
695.53	9149.15
695.66	9247.46
695.80	9156.18
695.93	9277.88
696.07	9455.76
696.20	9280.22
696.33	9355.12
696.47	9404.27
696.60	9664.07
696.73	9596.20
696.87	9600.88
697.00	9591.52
697.14	9259.16
697.27	9294.27
697.40	9338.74
697.54	8908.08
697.67	8858.93
697.80	8898.72
697.94	8842.54
698.07	8659.98
698.21	8608.49
698.34	8688.07
698.47	8615.51
698.61	8212.94
698.74	8292.52
698.87	8425.93
699.01	8304.22
699.14	8128.68
699.27	8266.77
699.40	8388.48
699.54	8358.05
699.67	8313.58
699.80	8058.46
699.94	8006.97
700.07	8016.33
700.20	7705.04
700.34	7492.05
700.47	7606.74
700.60	7454.61
700.73	7599.72
700.87	7660.57
701.00	7573.97
701.13	7595.04
701.26	7379.71
701.40	7405.46
701.53	7454.61
701.66	7276.73
701.79	7627.81
701.93	7391.41
702.06	7225.23
702.19	7456.95
702.32	7337.58
702.46	7108.21
702.59	7148.00
702.72	7183.10
702.85	7328.22
702.99	7250.98
703.12	7304.81
703.25	7155.02
703.38	7178.42
703.51	7145.66
703.65	6960.75
703.78	6853.09
703.91	7077.78
704.04	7110.55
704.17	7105.87
704.31	7073.10
704.44	6988.84
704.57	6998.20
704.70	7052.03
704.83	6848.41
704.96	6810.96
705.10	6764.15
705.23	6712.66
>>>>>End Processed Spectral Data<<<<<
