SpectraSuite Data File
++++++++++++++++++++++++++++++++++++
Date: Mon Oct 07 14:55:51 GMT-05:00 2013
User: price-jones
Dark Spectrum Present: No
Reference Spectrum Present: No
Number of Sampled Component Spectra: 1
Spectrometers: USB2+H05261
Integration Time (usec): 1000000 (USB2+H05261)
Spectra Averaged: 1 (USB2+H05261)
Boxcar Smoothing: 0 (USB2+H05261)
Correct for Electrical Dark: No (USB2+H05261)
Strobe/Lamp Enabled: No (USB2+H05261)
Correct for Detector Non-linearity: No (USB2+H05261)
Correct for Stray Light: No (USB2+H05261)
Number of Pixels in Processed Spectrum: 2048
>>>>>Begin Processed Spectral Data<<<<<
365.73	0.00
365.92	0.00
366.12	0.00
366.32	0.00
366.52	0.00
366.72	175.54
366.91	0.00
367.11	168.52
367.31	67.88
367.51	163.84
367.70	182.56
367.90	451.72
368.10	149.79
368.30	189.58
368.49	0.00
368.69	341.72
368.89	173.20
369.09	0.00
369.28	42.13
369.48	0.00
369.68	63.19
369.87	187.24
370.07	14.04
370.27	554.71
370.47	1205.38
370.66	3496.76
370.86	4348.72
371.06	4945.55
371.25	5029.81
371.45	4088.92
371.65	3929.76
371.84	3344.63
372.04	3597.40
372.24	4212.96
372.44	4147.43
372.63	4142.75
372.83	4294.88
373.03	3475.70
373.22	3204.19
373.42	3513.14
373.62	3943.80
373.81	4201.26
374.01	4351.06
374.21	3953.16
374.40	3538.89
374.60	4042.11
374.79	4205.94
374.99	4678.73
375.19	4884.70
375.38	5013.43
375.58	4873.00
375.78	4894.06
375.97	4807.46
376.17	5408.98
376.37	4753.63
376.56	5195.99
376.76	5060.24
376.95	5291.95
377.15	6057.31
377.35	6085.39
377.54	6464.56
377.74	6106.46
377.93	6338.17
378.13	6235.19
378.33	5935.60
378.52	5397.28
378.72	5799.85
378.91	5511.96
379.11	4887.04
379.31	4858.95
379.50	4585.11
379.70	5626.65
379.89	6043.26
380.09	5792.83
380.28	6153.27
380.48	6078.37
380.68	5851.34
380.87	5715.59
381.07	5673.46
381.26	5507.28
381.46	5210.03
381.65	4983.00
381.85	4561.70
382.04	4526.60
382.24	4304.25
382.43	4051.47
382.63	3957.85
382.83	3819.75
383.02	4156.79
383.22	4351.06
383.41	3833.80
383.61	4290.20
383.80	5151.52
384.00	5174.92
384.19	5767.08
384.39	6155.61
384.58	5858.36
384.78	6083.05
384.97	5926.24
385.17	5654.73
385.36	5221.74
385.56	5390.25
385.75	5186.63
385.95	5783.46
386.14	6352.21
386.34	5923.90
386.53	5921.56
386.72	5390.25
386.92	6050.28
387.11	6174.33
387.31	6270.30
387.50	5900.49
387.70	5575.16
387.89	6031.56
388.09	5785.80
388.28	5776.44
388.48	5919.21
388.67	6684.57
388.86	7091.82
389.06	7639.51
389.25	7882.92
389.45	7880.58
389.64	7782.28
389.84	8241.03
390.03	7775.26
390.22	7653.55
390.42	8013.99
390.61	8294.86
390.81	8571.04
391.00	9046.17
391.19	9186.60
391.39	8505.51
391.58	8325.29
391.78	7700.36
391.97	7541.21
392.16	6696.27
392.36	6574.56
392.55	5329.40
392.75	4264.46
392.94	3407.82
393.13	3850.18
393.33	4229.35
393.52	5186.63
393.71	6691.59
393.91	7042.67
394.10	7328.22
394.29	8257.41
394.49	8786.37
394.68	9334.06
394.88	9579.81
395.07	9781.10
395.26	9448.74
395.46	9263.84
395.65	8901.06
395.84	7749.51
396.04	7204.17
396.23	5434.72
396.42	4629.58
396.62	4657.67
396.81	5753.04
397.00	6932.67
397.19	8395.50
397.39	9385.55
397.58	11084.78
397.77	11047.33
397.97	11375.00
398.16	11365.64
398.35	12294.83
398.55	12126.32
398.74	12872.95
398.93	13287.22
399.12	12730.17
399.32	12219.94
399.51	12552.29
399.70	13877.04
399.90	13209.98
400.09	13532.98
400.28	13221.69
400.47	13362.12
400.67	14171.94
400.86	14335.78
401.05	14333.44
401.24	14567.49
401.44	14441.11
401.63	14771.12
401.82	14995.81
402.01	14476.21
402.21	14963.04
402.40	14909.21
402.59	14099.39
402.78	13818.52
402.97	13511.91
403.17	14310.04
403.36	15187.74
403.55	15625.42
403.74	15903.94
403.93	15140.93
404.13	14483.24
404.32	14436.42
404.51	14773.46
404.70	15983.52
404.89	15311.78
405.09	15330.51
405.28	14738.35
405.47	14298.33
405.66	14661.12
405.85	14356.85
406.05	13870.01
406.24	14260.88
406.43	14721.97
406.62	15150.29
406.81	15971.82
407.00	14824.95
407.20	14415.36
407.39	14523.02
407.58	15260.29
407.77	15908.62
407.96	16444.60
408.15	16666.95
408.34	16739.51
408.54	17055.48
408.73	17348.05
408.92	16908.03
409.11	16702.06
409.30	15829.04
409.49	14476.21
409.68	13923.85
409.87	13516.59
410.07	14408.34
410.26	15922.66
410.45	16425.88
410.64	16444.60
410.83	17249.75
411.02	17462.74
411.21	18462.15
411.40	18169.58
411.59	18185.96
411.78	18073.62
411.98	17790.41
412.17	18040.85
412.36	17692.11
412.55	17556.36
412.74	17359.75
412.93	17509.55
413.12	17198.26
413.31	19213.46
413.50	19087.07
413.69	19091.75
413.88	18497.25
414.07	17963.61
414.26	18249.16
414.45	18827.27
414.64	18918.55
414.83	18895.14
415.02	18331.08
415.22	19054.30
415.41	19449.85
415.60	19173.67
415.79	20292.44
415.98	21205.25
416.17	20730.12
416.36	20292.44
416.55	19728.38
416.74	19356.23
416.93	18623.64
417.12	18530.02
417.31	19023.87
417.50	19480.28
417.69	20273.72
417.88	19779.87
418.07	19225.16
418.26	19255.59
418.45	19250.91
418.64	20442.24
418.83	20978.22
419.02	20692.68
419.21	20070.09
419.39	19288.35
419.58	18408.31
419.77	18520.66
419.96	19775.19
420.15	21177.17
420.34	20732.47
420.53	21895.71
420.72	22183.60
420.91	22005.72
421.10	21399.52
421.29	21579.74
421.48	20882.26
421.67	22118.06
421.86	20795.66
422.05	19213.46
422.24	17486.14
422.43	18160.22
422.61	19765.82
422.80	20971.20
422.99	20800.34
423.18	20070.09
423.37	20215.21
423.56	20264.36
423.75	20561.61
423.94	20671.61
424.13	19515.39
424.32	19482.62
424.50	19697.95
424.69	19433.47
424.88	19985.83
425.07	19461.55
425.26	19613.69
425.45	19639.44
425.64	18803.86
425.83	19131.54
426.01	20421.17
426.20	20348.62
426.39	20205.84
426.58	18817.91
426.77	17174.85
426.96	17434.65
427.15	17996.38
427.33	19307.08
427.52	19824.34
427.71	19770.51
427.90	19377.30
428.09	18932.59
428.28	18743.01
428.46	18225.75
428.65	18462.15
428.84	18235.11
429.03	19119.84
429.22	17481.46
429.40	16491.41
429.59	14925.60
429.78	14193.01
429.97	13851.29
430.16	14052.58
430.34	13823.20
430.53	13860.65
430.72	14579.20
430.91	16336.94
431.10	18420.02
431.28	21689.74
431.47	23300.03
431.66	23365.57
431.85	20751.19
432.03	19168.99
432.22	19365.59
432.41	19939.02
432.60	22113.38
432.79	22593.19
432.97	23028.53
433.16	22019.76
433.35	20285.42
433.54	18265.54
433.72	17898.08
433.91	18616.62
434.10	20133.29
434.28	21582.08
434.47	22277.22
434.66	22242.11
434.85	21502.50
435.03	22478.50
435.22	25172.46
435.41	28601.35
435.59	28306.44
435.78	26457.42
435.97	25249.70
436.16	24898.62
436.34	23873.46
436.53	23358.55
436.72	23740.05
436.90	22520.63
437.09	22356.80
437.28	22183.60
437.46	22719.58
437.65	22373.18
437.84	20877.58
438.02	19414.74
438.21	19784.55
438.40	20173.08
438.58	21795.07
438.77	22686.81
438.96	22815.54
439.14	23873.46
439.33	24561.58
439.52	24521.79
439.70	23772.82
439.89	23728.35
440.08	22649.36
440.26	22862.35
440.45	24151.99
440.63	25326.94
440.82	25914.41
441.01	25582.06
441.19	25207.57
441.38	26218.68
441.57	27009.78
441.75	27477.89
441.94	27852.38
442.12	27061.27
442.31	27630.02
442.50	27611.30
442.68	27072.98
442.87	26920.84
443.05	26595.51
443.24	26941.91
443.43	27768.12
443.61	28285.37
443.80	28254.95
443.98	26625.93
444.17	27082.34
444.35	28533.47
444.54	28954.77
444.73	28142.60
444.91	27077.66
445.10	25940.16
445.28	24982.88
445.47	25025.01
445.65	25106.93
445.84	25663.97
446.02	26560.40
446.21	26932.54
446.39	26902.12
446.58	27051.91
446.77	27866.42
446.95	27800.88
447.14	28538.15
447.32	29315.21
447.51	28294.74
447.69	27660.45
447.88	27248.52
448.06	28224.52
448.25	28292.40
448.43	28048.98
448.62	27442.78
448.80	27641.73
448.99	27709.60
449.17	27892.16
449.36	27695.56
449.54	29156.05
449.73	29134.99
449.91	30216.32
450.10	30136.74
450.28	31646.38
450.46	31339.77
450.65	30888.05
450.83	30452.71
451.02	29778.64
451.20	29893.32
451.39	29668.63
451.57	29696.72
451.76	29518.84
451.94	29184.14
452.13	28233.88
452.31	27807.90
452.49	26258.47
452.68	26382.52
452.86	27072.98
453.05	27147.87
453.23	27737.69
453.42	28112.17
453.60	29139.67
453.78	29614.80
453.97	28645.82
454.15	28996.90
454.34	27840.67
454.52	28315.80
454.70	28243.24
454.89	28369.63
455.07	28591.98
455.26	28989.88
455.44	30204.61
455.62	30270.15
455.81	30352.07
455.99	30052.48
456.17	30218.66
456.36	30099.29
456.54	30668.04
456.73	30553.35
456.91	30892.73
457.09	31271.90
457.28	32147.26
457.46	30466.75
457.64	30501.86
457.83	29261.38
458.01	28716.03
458.19	29586.71
458.38	29818.42
458.56	30817.83
458.74	30319.30
458.93	29989.28
459.11	30064.18
459.29	29259.04
459.48	29958.86
459.66	30089.93
459.84	30368.45
460.03	31756.39
460.21	30485.48
460.39	31147.85
460.57	31180.62
460.76	31728.30
460.94	31524.68
461.12	31297.64
461.31	31709.58
461.49	31391.26
461.67	31271.90
461.85	32173.00
462.04	32004.49
462.22	38511.17
462.40	32210.45
462.59	31997.46
462.77	31952.99
462.95	32037.25
463.13	31271.90
463.32	31536.38
463.50	31356.16
463.68	31026.14
463.86	31370.20
464.05	30698.47
464.23	29944.81
464.41	30249.08
464.59	29558.63
464.78	31072.95
464.96	30471.43
465.14	30326.32
465.32	31211.04
465.50	32306.41
465.69	32364.93
465.87	31234.45
466.05	30756.98
466.23	28893.91
466.41	28247.93
466.60	29621.82
466.78	29734.17
466.96	30532.29
467.14	30838.90
467.32	31005.08
467.51	30876.35
467.69	29610.12
467.87	30855.28
468.05	30724.21
468.23	31211.04
468.41	31161.89
468.60	30756.98
468.78	31091.68
468.96	30785.07
469.14	31466.16
469.32	30747.62
469.50	29895.66
469.69	30199.93
469.87	29649.91
470.05	29701.40
470.23	29773.95
470.41	29518.84
470.59	30228.02
470.77	30665.70
470.95	30909.11
471.14	31744.69
471.32	31353.82
471.50	33254.33
471.68	33326.89
471.86	33071.77
472.04	33289.44
472.22	33401.79
472.40	31461.48
472.58	31473.18
472.77	31101.04
472.95	31908.52
473.13	33216.88
473.31	32374.29
473.49	31716.60
473.67	32488.98
473.85	32905.59
474.03	34087.56
474.21	33914.36
474.39	34345.02
474.57	34478.43
474.75	34239.70
474.93	33706.05
475.12	32720.69
475.30	33312.84
475.48	33298.80
475.66	33970.54
475.84	33146.67
476.02	32753.46
476.20	32814.31
476.38	33324.55
476.56	34857.60
476.74	34237.36
476.92	34801.43
477.10	35204.00
477.28	36655.13
477.46	36425.76
477.64	36409.37
477.82	36058.29
478.00	36919.61
478.18	36299.37
478.36	35840.62
478.54	36170.64
478.72	36566.19
478.90	37184.09
479.08	38684.37
479.26	38419.89
479.44	38443.30
479.62	37640.50
479.80	38326.27
479.98	38047.75
480.16	38768.63
480.34	38569.69
480.52	38925.45
480.70	38962.90
480.88	38967.58
481.06	39356.11
481.24	39985.71
481.41	40168.27
481.59	41724.73
481.77	41303.43
481.95	40617.66
482.13	40587.23
482.31	40512.33
482.49	41036.61
482.67	40992.14
482.85	41425.14
483.03	41989.21
483.21	42284.12
483.39	42277.10
483.57	41401.74
483.74	41006.19
483.92	41642.81
484.10	40924.27
484.28	42707.76
484.46	43658.01
484.64	43604.18
484.82	42298.16
485.00	41881.55
485.18	41186.41
485.35	39842.94
485.53	36121.49
485.71	33968.19
485.89	33755.21
486.07	35824.24
486.25	39557.39
486.43	41219.17
486.61	40954.69
486.78	41113.85
486.96	40854.05
487.14	42986.28
487.32	43707.16
487.50	44708.91
487.68	45888.54
487.85	45858.12
488.03	46288.77
488.21	45766.84
488.39	44872.75
488.57	44531.03
488.75	43782.06
488.92	47887.36
489.10	47700.12
489.28	49340.83
489.46	49127.84
489.64	49291.68
489.81	49701.28
489.99	49284.66
490.17	49036.56
490.35	50113.21
490.53	48919.54
490.70	47995.03
490.88	48989.75
491.06	49759.79
491.24	49649.78
491.41	48334.40
491.59	46459.63
491.77	45858.12
491.95	46927.74
492.13	48027.79
492.30	50028.95
492.48	50801.33
492.66	51178.15
492.84	51072.83
493.01	50810.69
493.19	50033.63
493.37	49911.92
493.54	49771.49
493.72	50515.78
493.90	51505.83
494.08	52516.94
494.25	52966.32
494.43	52523.96
494.61	52687.80
494.79	52954.62
494.96	52753.33
495.14	52313.31
495.32	51304.54
495.49	50347.26
495.67	52247.78
495.85	53113.78
496.02	53659.12
496.20	53640.40
496.38	52715.89
496.55	52821.21
496.73	53509.33
496.91	53202.72
497.09	54438.52
497.26	54052.33
497.44	53425.07
497.62	52907.81
497.79	52289.91
497.97	50440.89
498.14	51386.46
498.32	52381.19
498.50	53123.14
498.67	54103.82
498.85	53834.66
499.03	53970.41
499.20	54089.78
499.38	54059.35
499.56	53858.07
499.73	53769.13
499.91	53183.99
500.08	52292.25
500.26	51632.22
500.44	52294.59
500.61	53050.58
500.79	52219.69
500.97	52514.60
501.14	52184.58
501.32	51922.44
501.49	52093.30
501.67	52275.87
501.84	52926.53
502.02	53286.98
502.20	54099.14
502.37	53904.88
502.55	53696.57
502.72	54094.46
502.90	54740.45
503.07	54478.31
503.25	54052.33
503.43	53191.01
503.60	52161.18
503.78	51398.16
503.95	52060.54
504.13	53668.48
504.30	54761.51
504.48	54223.19
504.65	54073.40
504.83	53792.53
505.01	54693.64
505.18	54220.85
505.36	55664.96
505.53	55833.48
505.71	55618.15
505.88	56191.58
506.06	55161.75
506.23	54939.39
506.41	54473.63
506.58	55040.04
506.76	54684.28
506.93	54974.50
507.11	54677.25
507.28	54405.75
507.46	54068.72
507.63	53497.62
507.81	53244.85
507.98	53989.14
508.16	54588.31
508.33	54864.50
508.50	55496.44
508.68	55709.43
508.85	56067.53
509.03	55929.44
509.20	55899.01
509.38	54983.86
509.55	54391.71
509.73	54944.08
509.90	55374.73
510.08	55489.42
510.25	55112.59
510.42	54904.29
510.60	54616.40
510.77	55484.74
510.95	56006.68
511.12	55934.12
511.30	56357.76
511.47	56622.24
511.64	56411.59
511.82	56137.75
511.99	55049.40
512.17	54962.80
512.34	54646.83
512.51	54946.42
512.69	54773.22
512.86	54775.56
513.04	55454.31
513.21	55318.56
513.38	54866.84
513.56	54365.96
513.73	53848.71
513.90	53837.00
514.08	54178.72
514.25	54602.36
514.43	54869.18
514.60	54513.42
514.77	54960.46
514.95	55112.59
515.12	55047.06
515.29	55480.06
515.47	56074.55
515.64	56116.68
515.81	55763.26
515.99	55346.65
516.16	53317.40
516.33	51051.76
516.51	49106.78
516.68	48444.41
516.85	48341.42
517.03	49134.87
517.20	52523.96
517.37	54358.94
517.54	55107.91
517.72	54340.22
517.89	51814.78
518.06	49364.24
518.24	50698.34
518.41	52963.98
518.58	54012.54
518.75	54190.42
518.93	54307.45
519.10	54309.79
519.27	54370.64
519.45	54810.67
519.62	55559.64
519.79	56296.91
519.96	55774.97
520.14	55119.62
520.31	54487.67
520.48	54410.43
520.65	54822.37
520.83	55824.12
521.00	55980.93
521.17	56095.62
521.34	55274.09
521.52	55791.35
521.69	56198.60
521.86	56643.30
522.03	56236.05
522.20	55519.85
522.38	54059.35
522.55	54440.86
522.72	54763.85
522.89	55121.96
523.07	55423.89
523.24	55650.92
523.41	56598.83
523.58	56680.75
523.75	57116.09
523.92	56933.53
524.10	57336.10
524.27	56970.98
524.44	56746.29
524.61	56903.10
524.78	56505.21
524.96	56484.15
525.13	56708.84
525.30	56816.50
525.47	57352.49
525.64	56713.52
525.81	56025.40
525.98	54735.77
526.16	53462.52
526.33	52575.45
526.50	51524.55
526.67	51674.35
526.84	52706.52
527.01	53853.39
527.18	54752.15
527.36	55561.98
527.53	56301.59
527.70	56793.10
527.87	55985.61
528.04	55437.93
528.21	56119.02
528.38	56910.13
528.55	57628.67
528.72	58017.20
528.89	58131.89
529.07	57682.50
529.24	56739.27
529.41	56280.52
529.58	55906.04
529.75	55803.05
529.92	56577.77
530.09	56914.81
530.26	57401.64
530.43	57556.11
530.60	57621.65
530.77	57710.59
530.94	58061.67
531.11	57418.02
531.28	57102.05
531.46	57038.86
531.63	57471.85
531.80	56963.96
531.97	56481.81
532.14	55632.19
532.31	54934.71
532.48	53965.73
532.65	54578.95
532.82	55136.00
532.99	56259.46
533.16	56605.86
533.33	56858.63
533.50	57186.31
533.67	55976.25
533.84	56027.74
534.01	56051.15
534.18	56378.82
534.35	56521.60
534.52	56519.26
534.69	57303.34
534.86	57120.77
535.03	57289.29
535.20	57757.40
535.37	58398.71
535.54	58342.53
535.71	57581.86
535.88	57701.23
536.05	57095.03
536.22	56577.77
536.38	56357.76
536.55	55966.89
536.72	55620.49
536.89	55405.16
537.06	56324.99
537.23	56896.08
537.40	56970.98
537.57	57244.82
537.74	57223.76
537.91	56999.07
538.08	57153.54
538.25	57553.77
538.42	57399.30
538.59	57144.18
538.75	56432.66
538.92	56573.09
539.09	56472.45
539.26	56210.31
539.43	56299.25
539.60	56322.65
539.77	56704.16
539.94	56765.01
540.11	56207.97
540.28	55938.80
540.44	56219.67
540.61	56282.86
540.78	56821.19
540.95	57296.31
541.12	58164.65
541.29	58555.52
541.46	58937.03
541.62	58808.30
541.79	58632.76
541.96	58159.97
542.13	58199.76
542.30	58288.70
542.47	58459.56
542.63	57731.65
542.80	57762.08
542.97	57813.57
543.14	57647.39
543.31	57827.62
543.48	58520.41
543.64	59147.68
543.81	59367.69
543.98	58894.90
544.15	58518.07
544.32	57530.37
544.48	58134.23
544.65	58387.00
544.82	58466.58
544.99	58281.68
545.16	58094.44
545.32	58267.64
545.49	60544.98
545.66	62106.12
545.83	62260.59
546.00	61024.79
546.16	59215.55
546.33	58363.60
546.50	57867.40
546.67	58155.29
546.83	57481.22
547.00	57586.54
547.17	56566.07
547.34	56315.63
547.50	56327.33
547.67	56626.92
547.84	56722.88
548.00	57052.90
548.17	57343.12
548.34	57221.42
548.51	57513.98
548.67	57425.04
548.84	57230.78
549.01	57371.21
549.18	57102.05
549.34	57083.33
549.51	57116.09
549.68	56947.57
549.84	56718.20
550.01	56570.75
550.18	56800.12
550.34	56919.49
550.51	56502.87
550.68	56718.20
550.84	55922.42
551.01	56154.13
551.18	56102.64
551.34	56191.58
551.51	56383.51
551.68	56814.16
551.84	56905.44
552.01	56250.09
552.18	56479.47
552.34	55758.58
552.51	55318.56
552.68	55011.95
552.84	55688.37
553.01	56142.43
553.18	55969.23
553.34	55870.93
553.51	55990.30
553.67	56114.34
553.84	56666.71
554.01	56135.41
554.17	56154.13
554.34	56100.30
554.51	56336.69
554.67	56413.93
554.84	56324.99
555.00	55679.00
555.17	55700.07
555.33	55810.07
555.50	55426.23
555.67	55412.18
555.83	55337.29
556.00	55168.77
556.16	56264.14
556.33	54635.13
556.50	54710.02
556.66	54939.39
556.83	54052.33
556.99	54356.60
557.16	54761.51
557.32	54719.38
557.49	55248.35
557.65	54951.10
557.82	55168.77
557.98	54969.82
558.15	53998.50
558.32	53645.08
558.48	52713.55
558.65	52772.06
558.81	53212.08
558.98	53544.44
559.14	53764.45
559.31	53670.82
559.47	53989.14
559.64	53396.98
559.80	53331.45
559.97	53361.87
560.13	53757.42
560.30	54384.69
560.46	55196.85
560.63	55451.97
560.79	55278.77
560.96	54834.07
561.12	53329.11
561.29	52669.08
561.45	52912.49
561.61	52963.98
561.78	54574.27
561.94	53844.02
562.11	53673.16
562.27	53734.02
562.44	54136.59
562.60	54438.52
562.77	54777.90
562.93	54724.07
563.10	54188.08
563.26	53567.84
563.42	53668.48
563.59	53389.96
563.75	53209.74
563.92	53722.32
564.08	53310.38
564.24	53827.64
564.41	54094.46
564.57	53497.62
564.74	53743.38
564.90	53303.36
565.07	53432.09
565.23	53191.01
565.39	52364.81
565.56	51936.49
565.72	51777.33
565.88	52629.29
566.05	52212.67
566.21	52795.46
566.38	52811.85
566.54	52563.75
566.70	53324.43
566.87	53329.11
567.03	53523.37
567.19	53881.47
567.36	53216.76
567.52	53029.52
567.68	53183.99
567.85	52404.59
568.01	52126.07
568.17	51538.60
568.34	51281.14
568.50	51831.16
568.66	51669.67
568.83	52535.66
568.99	51964.57
569.15	52463.11
569.32	52341.40
569.48	52083.94
569.64	52025.43
569.81	51414.55
569.97	51487.10
570.13	51564.34
570.30	50920.70
570.46	50340.24
570.62	49595.95
570.78	49813.62
570.95	49844.05
571.11	51007.29
571.27	51716.48
571.43	51346.67
571.60	51948.19
571.76	51641.58
571.92	52060.54
572.09	52341.40
572.25	52240.76
572.41	52025.43
572.57	51805.42
572.74	52493.54
572.90	51964.57
573.06	52013.73
573.22	52046.49
573.38	51885.00
573.55	51798.40
573.71	52039.47
573.87	51711.80
574.03	51222.62
574.20	51632.22
574.36	51136.02
574.52	51473.06
574.68	51082.19
574.84	50815.37
575.01	50064.06
575.17	49766.81
575.33	50539.19
575.49	50855.16
575.65	51063.47
575.82	50724.09
575.98	50651.53
576.14	50817.71
576.30	51723.50
576.46	52411.62
576.62	52212.67
576.79	52416.30
576.95	51590.09
577.11	50873.88
577.27	50913.67
577.43	51063.47
577.59	50415.14
577.75	49701.28
577.92	48959.33
578.08	48844.64
578.24	49104.44
578.40	50092.15
578.56	50621.11
578.72	51407.53
578.88	51503.49
579.04	50581.32
579.21	50632.81
579.37	50557.91
579.53	50564.93
579.69	50494.72
579.85	50834.10
580.01	50866.86
580.17	50225.56
580.33	50143.64
580.49	50312.16
580.65	50405.78
580.82	50880.91
580.98	50354.29
581.14	50361.31
581.30	50791.97
581.46	50342.58
581.62	51203.90
581.78	50607.06
581.94	50951.12
582.10	50581.32
582.26	50906.65
582.42	50731.11
582.58	51227.31
582.74	50841.12
582.90	50862.18
583.06	51091.55
583.22	51096.24
583.38	51058.79
583.54	50679.62
583.70	50857.50
583.86	50752.18
584.02	50714.73
584.18	51367.74
584.34	50733.45
584.50	50342.58
584.66	50164.70
584.82	49408.71
584.98	49998.52
585.14	49331.47
585.30	49244.87
585.46	48612.93
585.62	48303.98
585.78	48519.31
585.94	48676.12
586.10	48982.73
586.26	48952.30
586.42	50373.01
586.58	50204.49
586.74	50646.85
586.90	50518.12
587.06	50403.44
587.22	50050.02
587.38	48992.09
587.54	49497.65
587.70	49375.94
587.86	48758.04
588.02	48203.33
588.18	47845.23
588.34	46267.71
588.49	43995.05
588.65	41956.44
588.81	41904.95
588.97	41713.03
589.13	41696.64
589.29	42005.59
589.45	43180.54
589.61	44346.13
589.77	45191.06
589.93	46541.55
590.08	47255.42
590.24	46831.78
590.40	47058.81
590.56	47657.99
590.72	46766.24
590.88	46569.64
591.04	46429.21
591.20	46501.76
591.35	46532.19
591.51	46719.43
591.67	45619.38
591.83	46445.59
591.99	46808.37
592.15	46962.85
592.31	47494.15
592.46	47030.72
592.62	47353.72
592.78	46766.24
592.94	46986.25
593.10	47061.15
593.26	47185.20
593.41	47653.31
593.57	46831.78
593.73	45762.15
593.89	46298.14
594.05	45570.23
594.20	44854.03
594.36	45062.33
594.52	44547.42
594.68	44306.34
594.84	45162.98
594.99	45813.65
595.15	45617.04
595.31	45815.99
595.47	45446.18
595.62	45471.93
595.78	45773.86
595.94	45947.06
596.10	46272.39
596.25	45841.73
596.41	45390.01
596.57	45319.79
596.73	45642.79
596.88	45399.37
597.04	45862.80
597.20	44790.83
597.36	45167.66
597.51	44818.92
597.67	45160.64
597.83	44957.01
597.99	45088.08
598.14	44481.88
598.30	44823.60
598.46	44320.38
598.61	45151.27
598.77	44928.92
598.93	45476.61
599.09	45254.26
599.24	45546.82
599.40	45865.14
599.56	45514.06
599.71	45057.65
599.87	45027.23
600.03	44697.21
600.18	44692.53
600.34	44325.07
600.50	43566.73
600.65	44264.21
600.81	44912.54
600.97	44011.43
601.12	43995.05
601.28	44542.74
601.44	43569.07
601.59	43346.72
601.75	42799.04
601.91	43339.70
602.06	43131.39
602.22	44629.34
602.37	43545.67
602.53	43688.44
602.69	44233.78
602.84	43508.22
603.00	44016.11
603.16	44259.53
603.31	44622.31
603.47	44395.28
603.62	43744.61
603.78	44442.09
603.94	44390.60
604.09	44313.36
604.25	44002.07
604.40	43545.67
604.56	43491.83
604.71	44257.19
604.87	43976.33
605.03	42916.06
605.18	43526.94
605.34	43934.20
605.49	43063.52
605.65	43145.44
605.80	43185.22
605.96	43070.54
606.12	43007.34
606.27	43267.14
606.43	42951.17
606.58	43391.19
606.74	43007.34
606.89	42792.01
607.05	43636.95
607.20	43508.22
607.36	43143.09
607.51	43257.78
607.67	42525.19
607.82	42452.64
607.98	43194.59
608.13	42375.40
608.29	42443.27
608.44	42979.26
608.60	42438.59
608.75	43145.44
608.91	43306.93
609.06	43161.82
609.22	43768.02
609.37	43260.12
609.53	43973.98
609.68	43136.07
609.84	42834.14
609.99	43856.96
610.15	44603.59
610.30	46127.28
610.46	47487.13
610.61	49354.88
610.76	51164.11
610.92	52261.82
611.07	52718.23
611.23	52472.47
611.38	51498.81
611.54	49729.36
611.69	47777.36
611.84	46487.72
612.00	44945.31
612.15	44512.31
612.31	43854.62
612.46	43463.75
612.62	43320.98
612.77	43606.52
612.92	44339.11
613.08	42897.34
613.23	42504.13
613.39	41429.82
613.54	41188.75
613.69	41090.44
613.85	41099.81
614.00	41759.84
614.15	42459.66
614.31	41890.91
614.46	42122.62
614.62	41221.52
614.77	41844.10
614.92	41659.20
615.08	41249.60
615.23	40753.41
615.38	40701.92
615.54	39604.20
615.69	38808.42
615.84	37818.38
616.00	37633.47
616.15	37652.20
616.30	38384.79
616.46	37738.80
616.61	37954.13
616.76	38307.55
616.92	38754.59
617.07	38738.21
617.22	38843.53
617.37	38602.46
617.53	38679.69
617.68	38511.17
617.83	38389.47
617.99	39157.16
618.14	38939.49
618.29	38995.67
618.45	38223.29
618.60	38195.20
618.75	37420.48
618.90	37060.04
619.06	37558.58
619.21	38356.70
619.36	38593.09
619.51	37830.08
619.67	37504.74
619.82	37551.56
619.97	38169.46
620.12	38078.18
620.28	37720.07
620.43	37904.98
620.58	38836.51
620.73	37771.57
620.89	37525.81
621.04	37394.74
621.19	37729.44
621.34	36371.92
621.49	36404.69
621.65	36795.56
621.80	36758.11
621.95	36657.47
622.10	37331.54
622.25	36556.83
622.41	36182.34
622.56	36048.93
622.71	35672.10
622.86	36196.38
623.01	36034.89
623.16	36378.95
623.32	35732.96
623.47	36275.96
623.62	36163.62
623.77	35803.17
623.92	35442.73
624.07	34499.50
624.23	34590.78
624.38	34618.86
624.53	35150.17
624.68	34885.68
624.83	34845.90
624.98	34642.27
625.13	34139.05
625.29	33951.81
625.44	34352.04
625.59	34333.32
625.74	34508.86
625.89	35033.14
626.04	34291.19
626.19	35019.10
626.34	34490.13
626.49	34628.23
626.65	33787.97
626.80	34380.13
626.95	34005.64
627.10	33790.31
627.25	33373.70
627.40	31850.01
627.55	31978.74
627.70	31587.87
627.85	32004.49
628.00	32093.43
628.15	32882.19
628.30	33067.09
628.45	32896.23
628.60	32992.19
628.76	32697.28
628.91	32968.79
629.06	32851.76
629.21	32797.93
629.36	33179.43
629.51	32030.23
629.66	32156.62
629.81	31789.16
629.96	32671.54
630.11	32823.67
630.26	32865.80
630.41	33443.91
630.56	33289.44
630.71	33050.70
630.86	33221.56
631.01	32704.31
631.16	32095.77
631.31	32620.05
631.46	31747.03
631.61	31857.03
631.76	31358.50
631.91	31651.06
632.06	32041.93
632.21	31772.77
632.36	32238.54
632.51	31880.44
632.66	32114.49
632.81	31674.47
632.96	31885.12
633.10	31213.38
633.25	31688.51
633.40	31248.49
633.55	30969.97
633.70	31049.55
633.85	30698.47
634.00	30548.67
634.15	30850.60
634.30	30733.57
634.45	31063.59
634.60	31358.50
634.75	31037.84
634.90	31117.42
635.05	31131.47
635.19	30974.65
635.34	30965.29
635.49	30876.35
635.64	30548.67
635.79	30359.09
635.94	30143.76
636.09	30527.61
636.24	30782.73
636.39	30122.69
636.53	30778.04
636.68	30448.03
636.83	30377.81
636.98	31201.68
637.13	30153.12
637.28	30930.18
637.43	31360.84
637.57	30820.17
637.72	31180.62
637.87	30780.39
638.02	30398.88
638.17	30670.38
638.32	30714.85
638.46	30438.67
638.61	30866.98
638.76	29860.55
638.91	30054.82
639.06	29511.81
639.20	30230.36
639.35	29652.25
639.50	29170.10
639.65	29465.00
639.80	28889.23
639.94	29530.54
640.09	29816.08
640.24	29823.11
640.39	29158.39
640.54	29032.00
640.68	28854.12
640.83	29411.17
640.98	28430.49
641.13	28641.14
641.27	28613.05
641.42	28526.45
641.57	28512.41
641.72	28680.92
641.86	28418.78
642.01	28512.41
642.16	29193.50
642.31	29064.77
642.45	29193.50
642.60	29020.30
642.75	28404.74
642.90	28811.99
643.04	28336.87
643.19	27637.05
643.34	28545.17
643.48	27793.86
643.63	28196.43
643.78	28325.16
643.93	28973.49
644.07	28355.59
644.22	28187.07
644.37	28018.55
644.51	28137.92
644.66	28411.76
644.81	27768.12
644.95	28116.86
645.10	27428.74
645.25	27201.71
645.39	27730.67
645.54	27143.19
645.69	28034.94
645.83	26567.42
645.98	27620.66
646.13	26925.52
646.27	27175.96
646.42	26361.45
646.57	26689.13
646.71	26604.87
646.86	26443.37
647.00	26246.77
647.15	26398.90
647.30	25652.27
647.44	26286.56
647.59	25996.33
647.74	25544.61
647.88	25956.54
648.03	25694.40
648.17	26307.62
648.32	25481.41
648.47	26478.48
648.61	25825.47
648.76	25476.73
648.90	25074.16
649.05	24840.11
649.20	23967.09
649.34	24116.88
649.49	24472.64
649.63	25034.37
649.78	25455.67
649.92	25551.63
650.07	26672.74
650.21	25844.20
650.36	26586.15
650.51	26106.34
650.65	27070.64
650.80	26663.38
650.94	25757.60
651.09	25628.87
651.23	25261.40
651.38	24608.39
651.52	24257.31
651.67	24489.03
651.81	25397.15
651.96	25975.27
652.10	25837.17
652.25	25209.91
652.39	25858.24
652.54	25678.02
652.68	25455.67
652.83	25397.15
652.97	25340.98
653.12	24903.30
653.26	25116.29
653.41	25624.18
653.55	25516.52
653.70	24840.11
653.84	24945.43
653.99	24856.49
654.13	24278.38
654.27	24442.21
654.42	23786.86
654.56	24208.16
654.71	24238.59
654.85	23917.93
655.00	23307.05
655.14	23388.97
655.29	22576.81
655.43	22916.19
655.57	21757.62
655.72	20016.26
655.86	18808.54
656.01	18087.66
656.15	18305.33
656.30	20130.95
656.44	20147.33
656.58	20978.22
656.73	21579.74
656.87	21750.60
657.01	22485.53
657.16	23522.38
657.30	23377.27
657.45	23885.17
657.59	23796.23
657.73	23293.01
657.88	23550.47
658.02	24957.13
658.16	23672.18
658.31	23728.35
658.45	23463.87
658.60	22834.27
658.74	23494.30
658.88	23070.66
659.03	22988.74
659.17	23005.13
659.31	22780.43
659.46	22860.01
659.60	23742.39
659.74	23150.24
659.89	23274.29
660.03	23346.84
660.17	24357.96
660.32	23447.49
660.46	23232.16
660.60	23194.71
660.74	23297.69
660.89	23281.31
661.03	22813.20
661.17	22939.59
661.32	22878.74
661.46	23541.11
661.60	23337.48
661.74	23267.27
661.89	23489.62
662.03	23056.62
662.17	23026.19
662.31	23171.30
662.46	23168.96
662.60	22731.28
662.74	22544.04
662.88	22424.67
663.03	21855.92
663.17	21781.03
663.31	21778.68
663.45	22108.70
663.60	21909.75
663.74	21603.14
663.88	21582.08
664.02	21797.41
664.17	21738.90
664.31	21790.39
664.45	21844.22
664.59	21551.65
664.73	21886.35
664.88	22192.96
665.02	21813.79
665.16	21855.92
665.30	22181.26
665.44	22003.38
665.59	21823.16
665.73	21429.94
665.87	21401.86
666.01	21142.06
666.15	20905.66
666.29	20903.32
666.44	21930.82
666.58	21781.03
666.72	20905.66
666.86	21453.35
667.00	21383.13
667.14	21071.84
667.28	21406.54
667.43	20680.97
667.57	21125.68
667.71	20889.28
667.85	20837.79
667.99	20669.27
668.13	20498.41
668.27	20599.05
668.41	21057.80
668.56	20372.02
668.70	21106.95
668.84	20737.15
668.98	20510.11
669.12	20187.12
669.26	20540.54
669.40	20734.81
669.54	20154.35
669.68	20823.75
669.82	19999.88
669.96	20194.14
670.10	19892.21
670.25	20119.24
670.39	19887.53
670.53	19735.40
670.67	19889.87
670.81	19229.84
670.95	19625.39
671.09	19293.04
671.23	19789.23
671.37	19531.77
671.51	19185.37
671.65	19452.19
671.79	18874.08
671.93	19185.37
672.07	20121.59
672.21	19363.25
672.35	19068.34
672.49	18984.09
672.63	19431.13
672.77	19077.71
672.91	19194.73
673.05	19035.58
673.19	18635.35
673.33	18525.34
673.47	19489.64
673.61	18675.13
673.75	18717.26
673.89	18408.31
674.03	18824.93
674.17	18441.08
674.31	18623.64
674.45	18391.93
674.59	18317.03
674.73	18045.53
674.87	18162.56
675.01	17977.65
675.15	17961.27
675.29	18176.60
675.43	18403.63
675.56	18719.60
675.70	18274.90
675.84	18024.47
675.98	17741.26
676.12	17420.61
676.26	17713.17
676.40	17411.25
676.54	17626.57
676.68	17439.33
676.82	17469.76
676.96	17144.42
677.10	17497.84
677.23	16964.20
677.37	17078.89
677.51	17240.39
677.65	17919.14
677.79	16666.95
677.93	16578.01
678.07	16524.18
678.21	16152.04
678.34	16348.64
678.48	16046.71
678.62	16652.91
678.76	16432.90
678.90	16184.80
679.04	16365.03
679.18	16262.04
679.31	16081.82
679.45	16135.65
679.59	16180.12
679.73	16088.84
679.87	15892.24
680.00	16189.49
680.14	15782.23
680.28	15597.33
680.42	15403.07
680.56	15641.80
680.70	15255.61
680.83	15735.42
680.97	15152.63
681.11	15372.64
681.25	15667.55
681.39	15452.22
681.52	15513.07
681.66	15311.78
681.80	15183.06
681.94	14801.55
682.07	14970.07
682.21	15349.23
682.35	14623.67
682.49	14909.21
682.62	15014.54
682.76	14747.72
682.90	14441.11
683.04	14775.80
683.17	14747.72
683.31	14244.50
683.45	14665.80
683.59	14782.82
683.72	14380.25
683.86	14178.97
684.00	13902.78
684.13	14420.04
684.27	14141.52
684.41	14513.66
684.55	14031.51
684.68	14101.73
684.82	13811.50
684.96	13760.01
685.09	13631.28
685.23	13465.10
685.37	13352.76
685.50	13752.99
685.64	13586.81
685.78	13029.76
685.91	13486.17
686.05	13832.57
686.19	12924.44
686.32	11992.90
686.46	10927.96
686.60	9224.05
686.73	9497.89
686.87	8741.90
687.01	8549.98
687.14	8578.06
687.28	8957.23
687.42	9217.03
687.55	9593.86
687.69	10815.62
687.82	10663.48
687.96	10885.83
688.10	11150.31
688.23	11026.26
688.37	11166.70
688.50	10677.52
688.64	10640.08
688.78	10104.09
688.91	10244.52
689.05	9944.94
689.18	9844.29
689.32	9963.66
689.46	10237.50
689.59	10399.00
689.73	10539.43
689.86	10080.69
690.00	10183.67
690.13	10244.52
690.27	10174.31
690.41	10452.83
690.54	10665.82
690.68	10462.19
690.81	10501.98
690.95	10569.86
691.08	10724.33
691.22	10391.98
691.35	10485.60
691.49	10031.54
691.62	10530.07
691.76	10473.90
691.89	10485.60
692.03	10029.20
692.16	10160.27
692.30	10560.50
692.43	10190.69
692.57	9879.40
692.70	9638.33
692.84	10120.48
692.97	9750.67
693.11	9647.69
693.24	9816.21
693.38	9621.94
693.51	9745.99
693.65	9839.61
693.78	9500.23
693.92	9198.31
694.05	9350.44
694.19	9249.80
694.32	9446.40
694.45	9357.46
694.59	9308.31
694.72	9135.11
694.86	9322.35
694.99	9549.39
695.13	9359.80
695.26	9312.99
695.39	9205.33
695.53	9886.42
695.66	9167.88
695.80	9486.19
695.93	9041.49
696.07	9104.68
696.20	9343.42
696.33	9282.56
696.47	9252.14
696.60	9385.55
696.73	9607.90
696.87	9324.69
697.00	9963.66
697.14	9291.93
697.27	9107.02
697.40	9942.60
697.54	8964.25
697.67	8887.01
697.80	8879.99
697.94	8744.24
698.07	8706.79
698.21	8657.64
698.34	8879.99
698.47	8175.49
698.61	8081.87
698.74	8250.39
698.87	8280.82
699.01	8231.66
699.14	8191.88
699.27	8638.92
699.40	9748.33
699.54	8355.71
699.67	7936.76
699.80	8121.66
699.94	7992.93
700.07	7775.26
700.20	7566.95
700.34	7796.32
700.47	7482.69
700.60	7618.44
700.73	7918.03
700.87	8124.00
701.00	7613.76
701.13	7534.18
701.26	7655.89
701.40	7555.25
701.53	7435.88
701.66	7410.14
701.79	7688.66
701.93	7695.68
702.06	7824.41
702.19	7396.09
702.32	7786.96
702.46	7365.67
702.59	7026.29
702.72	7267.36
702.85	7356.30
702.99	7119.91
703.12	7733.13
703.25	7391.41
703.38	7136.29
703.51	7499.08
703.65	6935.01
703.78	7068.42
703.91	7218.21
704.04	7459.29
704.17	7258.00
704.31	6993.52
704.44	7136.29
704.57	7094.16
704.70	7239.28
704.83	6927.99
704.96	6927.99
705.10	6967.77
705.23	6801.60
>>>>>End Processed Spectral Data<<<<<
