SpectraSuite Data File
++++++++++++++++++++++++++++++++++++
Date: Mon Oct 07 14:53:48 GMT-05:00 2013
User: price-jones
Dark Spectrum Present: No
Reference Spectrum Present: No
Number of Sampled Component Spectra: 1
Spectrometers: USB2+H05261
Integration Time (usec): 100000 (USB2+H05261)
Spectra Averaged: 1 (USB2+H05261)
Boxcar Smoothing: 0 (USB2+H05261)
Correct for Electrical Dark: No (USB2+H05261)
Strobe/Lamp Enabled: No (USB2+H05261)
Correct for Detector Non-linearity: No (USB2+H05261)
Correct for Stray Light: No (USB2+H05261)
Number of Pixels in Processed Spectrum: 2048
>>>>>Begin Processed Spectral Data<<<<<
365.73	0.00
365.92	0.00
366.12	0.00
366.32	0.00
366.52	0.00
366.72	0.00
366.91	0.00
367.11	0.00
367.31	0.00
367.51	0.00
367.70	0.00
367.90	0.00
368.10	0.00
368.30	0.00
368.49	0.00
368.69	0.00
368.89	0.00
369.09	0.00
369.28	0.00
369.48	0.00
369.68	0.00
369.87	0.00
370.07	0.00
370.27	0.00
370.47	585.13
370.66	2843.75
370.86	3475.70
371.06	3934.44
371.25	3936.78
371.45	3419.52
371.65	3108.23
371.84	2874.18
372.04	3066.10
372.24	3428.88
372.44	3555.27
372.63	3602.08
372.83	3255.69
373.03	3014.61
373.22	2722.04
373.42	2876.52
373.62	3361.01
373.81	3550.59
374.01	3625.49
374.21	3309.52
374.40	2930.35
374.60	2855.45
374.79	3309.52
374.99	3950.82
375.19	4383.82
375.38	4437.66
375.58	4091.26
375.78	4128.70
375.97	4189.56
376.17	4416.59
376.37	4208.28
376.56	4479.79
376.76	4477.44
376.95	4950.23
377.15	5345.78
377.35	5404.30
377.54	5708.57
377.74	5949.64
377.93	5834.96
378.13	5774.10
378.33	5441.75
378.52	4931.51
378.72	4746.61
378.91	4802.78
379.11	4585.11
379.31	4346.37
379.50	4337.01
379.70	4713.84
379.89	5277.91
380.09	5556.43
380.28	5760.06
380.48	5717.93
380.68	5600.90
380.87	5631.33
381.07	5137.48
381.26	4894.06
381.46	4402.55
381.65	4437.66
381.85	4227.01
382.04	3960.19
382.24	3653.58
382.43	3595.06
382.63	3562.30
382.83	3527.19
383.02	3524.85
383.22	3407.82
383.41	3424.20
383.61	3630.17
383.80	4194.24
384.00	4758.31
384.19	5423.02
384.39	5753.04
384.58	5795.17
384.78	5413.66
384.97	5593.88
385.17	5376.21
385.36	4973.64
385.56	4795.76
385.75	4968.96
385.95	5502.60
386.14	5774.10
386.34	5877.09
386.53	5563.45
386.72	5191.31
386.92	5219.39
387.11	5696.86
387.31	5795.17
387.50	5767.08
387.70	5570.48
387.89	5462.81
388.09	5516.64
388.28	5514.30
388.48	5643.03
388.67	5870.06
388.86	6590.95
389.06	7033.31
389.25	7564.61
389.45	7543.55
389.64	7494.40
389.84	7454.61
390.03	7489.71
390.22	7407.80
390.42	7751.85
390.61	8177.83
390.81	8566.36
391.00	8968.93
391.19	8917.44
391.39	8468.06
391.58	7903.99
391.78	7513.12
391.97	7272.04
392.16	6843.73
392.36	6237.53
392.55	5107.05
392.75	3878.27
392.94	3211.22
393.13	3279.09
393.33	3850.18
393.52	4957.25
393.71	5760.06
393.91	6712.66
394.10	7279.07
394.29	8081.87
394.49	8531.25
394.68	9156.18
394.88	9135.11
395.07	9638.33
395.26	9437.04
395.46	9397.25
395.65	8758.28
395.84	7679.30
396.04	6656.48
396.23	5296.63
396.42	4414.25
396.62	4262.12
396.81	4800.44
397.00	6230.51
397.19	7812.71
397.39	9095.32
397.58	10417.72
397.77	11147.97
397.97	11510.75
398.16	11655.87
398.35	12145.04
398.55	12362.71
398.74	12980.61
398.93	13151.47
399.12	12961.89
399.32	12542.93
399.51	12968.91
399.70	13713.20
399.90	13547.02
400.09	13486.17
400.28	13411.27
400.47	13322.33
400.67	14321.74
400.86	14670.48
401.05	14611.96
401.24	14682.18
401.44	14827.29
401.63	15124.54
401.82	15199.44
402.01	14956.02
402.21	15508.39
402.40	15204.12
402.59	14932.62
402.78	13989.38
402.97	13743.63
403.17	14167.26
403.36	14967.73
403.55	15733.08
403.74	15903.94
403.93	15157.31
404.13	13989.38
404.32	13855.97
404.51	14314.72
404.70	15611.37
404.89	15440.51
405.09	15393.70
405.28	14726.65
405.47	14775.80
405.66	14813.25
405.85	14600.26
406.05	14324.08
406.24	14335.78
406.43	15021.56
406.62	15449.88
406.81	15700.31
407.00	14752.40
407.20	14408.34
407.39	15131.56
407.58	15424.13
407.77	16032.67
407.96	16477.37
408.15	16631.85
408.34	16748.87
408.54	17528.27
408.73	17497.84
408.92	17149.11
409.11	17022.72
409.30	15981.18
409.49	15166.67
409.68	14211.73
409.87	13352.76
410.07	14501.96
410.26	15538.82
410.45	16678.66
410.64	17090.59
410.83	17364.43
411.02	17752.96
411.21	18738.33
411.40	18480.87
411.59	18462.15
411.78	18445.76
411.98	18258.52
412.17	18614.28
412.36	18162.56
412.55	18244.48
412.74	17811.48
412.93	17153.79
413.12	17439.33
413.31	19274.31
413.50	19283.67
413.69	19719.01
413.88	19250.91
414.07	18480.87
414.26	18843.65
414.45	19339.85
414.64	19590.28
414.83	19604.33
415.02	19180.69
415.22	19005.15
415.41	19632.41
415.60	20348.62
415.79	20851.83
415.98	21240.36
416.17	21378.45
416.36	20851.83
416.55	20666.93
416.74	19810.29
416.93	19103.45
417.12	19133.88
417.31	19510.71
417.50	19749.44
417.69	20615.44
417.88	20577.99
418.07	20222.23
418.26	19711.99
418.45	20203.50
418.64	21050.78
418.83	21446.33
419.02	21088.23
419.21	21170.15
419.39	20460.96
419.58	19360.91
419.77	19513.05
419.96	20166.06
420.15	21022.69
420.34	21853.58
420.53	22696.17
420.72	22918.53
420.91	22895.12
421.10	22693.83
421.29	22628.30
421.48	21521.23
421.67	22455.10
421.86	21898.05
422.05	21039.08
422.24	18335.76
422.43	18136.81
422.61	20137.97
422.80	21949.54
422.99	21790.39
423.18	21193.55
423.37	20755.87
423.56	20929.07
423.75	20900.98
423.94	21434.63
424.13	20379.04
424.32	20908.01
424.50	20652.89
424.69	20280.74
424.88	20475.01
425.07	20208.19
425.26	20350.96
425.45	20156.69
425.64	19917.96
425.83	19880.51
426.01	21071.84
426.20	21266.11
426.39	21373.77
426.58	19571.56
426.77	18478.53
426.96	17799.77
427.15	18396.61
427.33	19793.91
427.52	20439.90
427.71	20669.27
427.90	20702.04
428.09	20130.95
428.28	19630.07
428.46	18853.02
428.65	19091.75
428.84	19257.93
429.03	19613.69
429.22	18752.37
429.40	17841.90
429.59	16224.59
429.78	14265.57
429.97	14232.80
430.16	14225.78
430.34	14707.93
430.53	14209.39
430.72	14668.14
430.91	16395.45
431.10	18909.19
431.28	22298.28
431.47	24084.11
431.66	24713.72
431.85	22630.64
432.03	20636.50
432.22	19562.20
432.41	20854.17
432.60	22939.59
432.79	23723.67
432.97	24269.01
433.16	23695.58
433.35	21752.94
433.54	19552.84
433.72	18295.97
433.91	19138.56
434.10	21352.71
434.28	22251.47
434.47	24161.35
434.66	23548.13
434.85	22574.47
435.03	22822.56
435.22	23421.74
435.41	24870.53
435.59	24783.93
435.78	25067.14
435.97	25764.62
436.16	25788.02
436.34	25188.85
436.53	24957.13
436.72	25135.01
436.90	23854.74
437.09	23686.22
437.28	22902.14
437.46	23983.47
437.65	24065.39
437.84	22403.61
438.02	20343.94
438.21	20603.74
438.40	21373.77
438.58	23180.67
438.77	24044.32
438.96	24093.47
439.14	25291.83
439.33	25788.02
439.52	25923.77
439.70	25750.57
439.89	25223.95
440.08	24233.91
440.26	24362.64
440.45	25179.48
440.63	26483.16
440.82	28233.88
441.01	27515.34
441.19	27850.03
441.38	27728.33
441.57	28989.88
441.75	29123.29
441.94	29230.95
442.12	28498.36
442.31	29893.32
442.50	29820.77
442.68	29628.84
442.87	29296.49
443.05	28524.11
443.24	29315.21
443.43	29605.44
443.61	30551.01
443.80	30632.93
443.98	28961.79
444.17	28673.90
444.35	30724.21
444.54	30911.46
444.73	30724.21
444.91	29596.07
445.10	28341.55
445.28	27314.05
445.47	26611.89
445.65	26925.52
445.84	27662.79
446.02	28411.76
446.21	28936.04
446.39	28954.77
446.58	29472.03
446.77	29677.99
446.95	30246.74
447.14	30895.07
447.32	31302.32
447.51	30909.11
447.69	29631.18
447.88	29516.50
448.06	29673.31
448.25	30356.75
448.43	30604.84
448.62	30050.14
448.80	29900.34
448.99	29916.73
449.17	30384.83
449.36	30050.14
449.54	31440.42
449.73	31880.44
449.91	32409.40
450.10	33303.48
450.28	33586.69
450.46	33184.12
450.65	33486.04
450.83	32903.25
451.02	32416.42
451.20	32332.16
451.39	32481.95
451.57	32086.40
451.76	32123.85
451.94	31906.18
452.13	31386.58
452.31	30110.99
452.49	28526.45
452.68	28608.37
452.86	28783.91
453.05	29493.09
453.23	30176.53
453.42	30623.57
453.60	31206.36
453.78	31601.91
453.97	31527.02
454.15	31559.78
454.34	30855.28
454.52	30848.26
454.70	30590.80
454.89	30703.15
455.07	30813.15
455.26	31477.86
455.44	32818.99
455.62	33268.37
455.81	33364.34
455.99	33088.15
456.17	32240.88
456.36	32821.33
456.54	33645.20
456.73	34019.69
456.91	33846.49
457.09	34256.08
457.28	34857.60
457.46	33724.78
457.64	33369.02
457.83	32238.54
458.01	31409.99
458.19	32259.60
458.38	32554.51
458.56	33701.37
458.74	33546.90
458.93	33256.67
459.11	32816.65
459.29	32818.99
459.48	33060.07
459.66	32842.40
459.84	32924.32
460.03	33696.69
460.21	33401.79
460.39	34466.73
460.57	34492.47
460.76	34682.06
460.94	34979.31
461.12	34113.31
461.31	34508.86
461.49	33820.74
461.67	34117.99
461.85	35548.06
462.04	35093.99
462.22	35314.00
462.40	35077.61
462.59	34986.33
462.77	35372.52
462.95	35133.78
463.13	34682.06
463.32	34349.70
463.50	34162.46
463.68	33905.00
463.86	34740.57
464.05	33703.71
464.23	33221.56
464.41	33125.60
464.59	32575.58
464.78	34052.45
464.96	33558.60
465.14	33570.30
465.32	34359.06
465.50	34848.24
465.69	35519.97
465.87	34834.19
466.05	33954.15
466.23	32444.51
466.41	31850.01
466.60	32673.88
466.78	33106.88
466.96	33443.91
467.14	33722.44
467.32	34223.31
467.51	34043.09
467.69	33247.31
467.87	33570.30
468.05	33905.00
468.23	33914.36
468.41	34007.98
468.60	34115.65
468.78	34113.31
468.96	33680.31
469.14	34829.51
469.32	34951.22
469.50	33415.83
469.69	33666.27
469.87	33118.58
470.05	32793.25
470.23	32856.44
470.41	33034.32
470.59	33207.52
470.77	33570.30
470.95	34625.89
471.14	34572.05
471.32	34763.98
471.50	36891.52
471.68	36940.68
471.86	37013.23
472.04	37392.40
472.22	37448.57
472.40	35416.99
472.58	35267.19
472.77	34689.08
472.95	35831.26
473.13	36526.40
473.31	35386.56
473.49	35714.23
473.67	36329.80
473.85	36662.15
474.03	37773.91
474.21	37544.53
474.39	38080.52
474.57	38272.44
474.75	37921.36
474.93	38064.13
475.12	37268.35
475.30	36854.08
475.48	37392.40
475.66	37965.83
475.84	37481.34
476.02	37198.13
476.20	36575.55
476.38	37010.89
476.56	38345.00
476.74	39129.08
476.92	38990.98
477.10	39426.32
477.28	40620.00
477.46	40793.20
477.64	41064.70
477.82	41130.23
478.00	41291.73
478.18	41062.36
478.36	40821.28
478.54	40512.33
478.72	40912.56
478.90	41738.77
479.08	42492.43
479.26	43438.00
479.44	43138.41
479.62	43023.73
479.80	42572.00
479.98	43196.93
480.16	43461.41
480.34	42813.08
480.52	43545.67
480.70	43672.06
480.88	43550.35
481.06	44140.16
481.24	45001.48
481.41	45965.78
481.59	46244.30
481.77	45921.31
481.95	45123.19
482.13	45148.93
482.31	45104.46
482.49	45846.41
482.67	45907.27
482.85	45984.51
483.03	46831.78
483.21	46710.07
483.39	47037.75
483.57	46309.84
483.74	46204.52
483.92	46698.37
484.10	46658.58
484.28	47868.64
484.46	47854.59
484.64	48444.41
484.82	47304.57
485.00	46941.78
485.18	45872.16
485.35	44811.90
485.53	41710.69
485.71	38059.45
485.89	37539.85
486.07	39005.03
486.25	42967.55
486.43	45008.50
486.61	45549.17
486.78	45588.95
486.96	46094.51
487.14	47473.09
487.32	48332.06
487.50	49649.78
487.68	50483.01
487.85	51061.13
488.03	50817.71
488.21	50485.36
488.39	49626.38
488.57	49158.27
488.75	48758.04
488.92	49591.27
489.10	51978.62
489.28	52889.09
489.46	53818.28
489.64	53780.83
489.81	53811.26
489.99	53570.18
490.17	53354.85
490.35	54024.25
490.53	53514.01
490.70	53198.04
490.88	53125.48
491.06	53949.35
491.24	53921.26
491.41	52823.55
491.59	51276.46
491.77	50742.81
491.95	51559.66
492.13	52694.82
492.30	54138.93
492.48	55040.04
492.66	55220.26
492.84	55255.37
493.01	55098.55
493.19	54686.62
493.37	54260.64
493.54	54115.53
493.72	54630.44
493.90	55477.72
494.08	56488.83
494.25	56638.62
494.43	56598.83
494.61	57284.61
494.79	57261.21
494.96	57041.20
495.14	56463.08
495.32	55704.75
495.49	54770.88
495.67	55875.61
495.85	57095.03
496.02	57621.65
496.20	57322.06
496.38	56954.60
496.55	56816.50
496.73	57338.44
496.91	57513.98
497.09	58059.33
497.26	58408.07
497.44	57631.01
497.62	57240.14
497.79	56502.87
497.97	55299.84
498.14	55278.77
498.32	56442.02
498.50	57359.51
498.67	57984.43
498.85	57642.71
499.03	58031.24
499.20	58181.04
499.38	58052.31
499.56	58122.52
499.73	57694.21
499.91	57045.88
500.08	56762.67
500.26	55877.95
500.44	56334.35
500.61	57043.54
500.79	56793.10
500.97	56554.36
501.14	56437.34
501.32	56472.45
501.49	56360.10
501.67	56664.37
501.84	57106.73
502.02	57120.77
502.20	57605.26
502.37	57748.04
502.55	57623.99
502.72	58197.42
502.90	58686.59
503.07	58611.70
503.25	58181.04
503.43	57343.12
503.60	56697.14
503.78	55999.66
503.95	56231.37
504.13	57738.68
504.30	58639.78
504.48	58387.00
504.65	57956.35
504.83	58101.46
505.01	58684.25
505.18	58862.13
505.36	59634.51
505.53	59599.40
505.71	59779.62
505.88	59814.73
506.06	59351.30
506.23	58770.85
506.41	58429.13
506.58	58796.60
506.76	58763.83
506.93	58702.98
507.11	58487.65
507.28	58714.68
507.46	58150.61
507.63	57623.99
507.81	57537.39
507.98	57616.97
508.16	58115.50
508.33	58773.19
508.50	59283.43
508.68	59512.80
508.85	59999.63
509.03	59861.54
509.20	59856.86
509.38	59194.49
509.55	58468.92
509.73	58445.52
509.90	58955.75
510.08	59166.40
510.25	59035.33
510.42	58951.07
510.60	58768.51
510.77	59082.14
510.95	59678.98
511.12	59931.76
511.30	60196.24
511.47	60037.08
511.64	60334.33
511.82	59936.44
511.99	59290.45
512.17	58745.11
512.34	58321.47
512.51	58653.82
512.69	58766.17
512.86	58820.00
513.04	59299.81
513.21	59215.55
513.38	59004.91
513.56	58499.35
513.73	57893.15
513.90	58042.95
514.08	58176.36
514.25	58234.87
514.43	58700.64
514.60	58583.61
514.77	59035.33
514.95	58927.67
515.12	58850.43
515.29	59255.34
515.47	59421.52
515.64	59791.33
515.81	59363.01
515.99	58927.67
516.16	57537.39
516.33	55288.13
516.51	53633.38
516.68	53013.13
516.85	52280.55
517.03	53176.97
517.20	55620.49
517.37	57846.34
517.54	59114.91
517.72	58497.01
517.89	56177.54
518.06	53661.46
518.24	54115.53
518.41	56392.87
518.58	57614.63
518.75	57787.83
518.93	58064.01
519.10	57759.74
519.27	58375.30
519.45	58375.30
519.62	59194.49
519.79	59461.31
519.96	59531.53
520.14	58885.54
520.31	57942.30
520.48	58195.08
520.65	58174.02
520.83	59290.45
521.00	59777.28
521.17	59332.58
521.34	59072.78
521.52	59463.65
521.69	59594.72
521.86	60179.85
522.03	59927.08
522.20	58880.86
522.38	57822.93
522.55	57806.55
522.72	58335.51
522.89	58316.79
523.07	58541.48
523.24	59093.85
523.41	59601.74
523.58	59924.74
523.75	60474.76
523.92	60441.99
524.10	60491.15
524.27	60130.70
524.44	60020.70
524.61	59774.94
524.78	59849.84
524.96	59653.23
525.13	59576.00
525.30	59903.67
525.47	60261.77
525.64	60385.82
525.81	59433.22
525.98	58066.35
526.16	56781.40
526.33	56053.49
526.50	55824.12
526.67	55461.33
526.84	56268.82
527.01	57132.48
527.18	57715.27
527.36	58794.26
527.53	59664.94
527.70	59784.30
527.87	59189.81
528.04	58784.90
528.21	59119.59
528.38	59803.03
528.55	60413.91
528.72	60603.49
528.89	60975.64
529.07	60544.98
529.24	59957.50
529.41	59412.16
529.58	58714.68
529.75	58904.26
529.92	59388.75
530.09	59831.11
530.26	60177.51
530.43	60575.40
530.60	60533.28
530.77	60718.18
530.94	60973.30
531.11	60486.46
531.28	59957.50
531.46	59681.32
531.63	59990.27
531.80	59868.56
531.97	59512.80
532.14	58965.12
532.31	57925.92
532.48	57146.52
532.65	57181.63
532.82	58089.76
532.99	59346.62
533.16	59292.79
533.33	60238.37
533.50	59716.43
533.67	59098.53
533.84	58674.89
534.01	58974.48
534.18	59096.19
534.35	59355.99
534.52	59285.77
534.69	59561.95
534.86	59805.37
535.03	59805.37
535.20	60317.95
535.37	60467.74
535.54	60547.32
535.71	60404.55
535.88	60378.80
536.05	59437.90
536.22	59119.59
536.38	58897.24
536.55	58454.88
536.72	57633.35
536.89	57869.75
537.06	58677.23
537.23	59613.44
537.40	59704.73
537.57	59484.72
537.74	59416.84
537.91	59428.54
538.08	59419.18
538.25	59367.69
538.42	59604.08
538.59	59451.95
538.75	58710.00
538.92	58534.46
539.09	58405.73
539.26	58272.32
539.43	57977.41
539.60	58206.78
539.77	58206.78
539.94	58277.00
540.11	57614.63
540.28	57176.95
540.44	57104.39
540.61	57221.42
540.78	57633.35
540.95	57883.79
541.12	58417.43
541.29	58583.61
541.46	58904.26
541.62	58962.78
541.79	58700.64
541.96	58300.40
542.13	58157.63
542.30	58377.64
542.47	58506.37
542.63	58408.07
542.80	58117.84
542.97	58244.23
543.14	58190.40
543.31	58169.33
543.48	58747.45
543.64	59536.21
543.81	59730.47
543.98	59538.55
544.15	58812.98
544.32	58403.39
544.48	58255.93
544.65	58787.24
544.82	59292.79
544.99	58880.86
545.16	58674.89
545.32	58354.24
545.49	58913.62
545.66	59482.37
545.83	58981.50
546.00	58489.99
546.16	58286.36
546.33	58384.66
546.50	58429.13
546.67	59007.25
546.83	58494.67
547.00	58597.65
547.17	57879.11
547.34	57282.27
547.50	57169.93
547.67	57752.72
547.84	57726.97
548.00	58192.74
548.17	58616.38
548.34	58543.82
548.51	58302.74
548.67	58426.79
548.84	58525.10
549.01	58363.60
549.18	58361.26
549.34	58471.26
549.51	58206.78
549.68	58375.30
549.84	57989.11
550.01	57946.98
550.18	57741.02
550.34	57991.45
550.51	58085.07
550.68	58326.15
550.84	57628.67
551.01	57607.61
551.18	57623.99
551.34	57937.62
551.51	58190.40
551.68	58452.54
551.84	58520.41
552.01	58466.58
552.18	58286.36
552.34	57588.88
552.51	56945.23
552.68	56786.08
552.84	57286.95
553.01	57607.61
553.18	57553.77
553.34	57733.99
553.51	57907.19
553.67	57865.06
553.84	58092.10
554.01	57881.45
554.17	57916.56
554.34	57827.62
554.51	57790.17
554.67	58408.07
554.84	58080.39
555.00	57762.08
555.17	57682.50
555.33	57516.32
555.50	57574.84
555.67	57773.78
555.83	57270.57
556.00	57045.88
556.16	57034.17
556.33	56626.92
556.50	56741.61
556.66	56746.29
556.83	56367.12
556.99	56451.38
557.16	56750.97
557.32	57113.75
557.49	57284.61
557.65	57188.65
557.82	57113.75
557.98	56750.97
558.15	56537.98
558.32	55744.54
558.48	54784.92
558.65	55203.88
558.81	55508.14
558.98	55945.83
559.14	55887.31
559.31	55922.42
559.47	55948.17
559.64	55702.41
559.80	55393.46
559.97	55210.90
560.13	55917.74
560.30	56966.30
560.46	57378.23
560.63	57521.01
560.79	57439.09
560.96	57020.13
561.12	56086.26
561.29	54944.08
561.45	55056.42
561.61	55543.25
561.78	55997.32
561.94	56231.37
562.11	56006.68
562.27	55501.12
562.44	56086.26
562.60	56416.27
562.77	56655.01
562.93	56402.23
563.10	56430.32
563.26	55781.99
563.42	55955.19
563.59	55681.34
563.75	55819.44
563.92	55767.94
564.08	55547.93
564.24	55884.97
564.41	55934.12
564.57	55749.22
564.74	55793.69
564.90	55702.41
565.07	55430.91
565.23	55068.12
565.39	54677.25
565.56	54293.41
565.72	53972.75
565.88	54365.96
566.05	54656.19
566.21	55042.38
566.38	54925.35
566.54	54911.31
566.70	55437.93
566.87	55910.72
567.03	55657.94
567.19	55810.07
567.36	55597.09
567.52	55313.88
567.68	55168.77
567.85	54513.42
568.01	54314.47
568.17	53778.49
568.34	53886.15
568.50	53818.28
568.66	53855.73
568.83	54440.86
568.99	54508.74
569.15	54653.85
569.32	54726.41
569.48	54103.82
569.64	54490.01
569.81	53827.64
569.97	53766.79
570.13	53497.62
570.30	53052.92
570.46	52758.02
570.62	52222.03
570.78	51892.02
570.95	52090.96
571.11	53361.87
571.27	53401.66
571.43	53294.00
571.60	53832.32
571.76	54108.50
571.92	54382.35
572.09	54443.20
572.25	54473.63
572.41	54440.86
572.57	54038.29
572.74	54298.09
572.90	53902.54
573.06	53829.98
573.22	53937.65
573.38	53904.88
573.55	54169.36
573.71	53911.90
573.87	54204.47
574.03	53291.66
574.20	53638.06
574.36	53422.73
574.52	53256.55
574.68	53123.14
574.84	52694.82
575.01	51964.57
575.17	52219.69
575.33	52528.64
575.49	52676.10
575.65	52872.70
575.82	52683.12
575.98	52306.29
576.14	52664.39
576.30	52978.03
576.46	52942.92
576.62	53099.73
576.79	52975.69
576.95	52603.54
577.11	52332.04
577.27	52528.64
577.43	52788.44
577.59	52346.08
577.75	51892.02
577.92	51257.73
578.08	51129.00
578.24	51157.09
578.40	51480.08
578.56	51782.01
578.72	51367.74
578.88	51700.09
579.04	52018.41
579.21	52222.03
579.37	52097.98
579.53	52142.45
579.69	52102.67
579.85	52446.72
580.01	52177.56
580.17	51910.74
580.33	51777.33
580.49	51831.16
580.65	51906.06
580.82	52053.51
580.98	52460.77
581.14	51810.10
581.30	52074.58
581.46	52009.04
581.62	52273.52
581.78	51997.34
581.94	52299.27
582.10	52538.01
582.26	52273.52
582.42	52540.35
582.58	52484.17
582.74	52060.54
582.90	52552.05
583.06	52179.90
583.22	52182.24
583.38	51711.80
583.54	51763.29
583.70	51828.82
583.86	52130.75
584.02	51973.94
584.18	52156.50
584.34	51641.58
584.50	51707.12
584.66	51309.22
584.82	51278.80
584.98	50908.99
585.14	50623.45
585.30	50333.22
585.46	50038.31
585.62	49296.36
585.78	49778.51
585.94	50096.83
586.10	50871.54
586.26	50588.34
586.42	50953.46
586.58	51217.94
586.74	51323.27
586.90	51112.62
587.06	50831.75
587.22	50686.64
587.38	50468.97
587.54	50082.78
587.70	50061.72
587.86	50033.63
588.02	49291.68
588.18	49413.39
588.34	47971.62
588.49	45776.20
588.65	43552.69
588.81	42951.17
588.97	43658.01
589.13	44044.20
589.29	43512.90
589.45	44130.80
589.61	45502.35
589.77	46958.17
589.93	47669.69
590.08	48357.81
590.24	48870.39
590.40	49172.31
590.56	49263.60
590.72	48451.43
590.88	47988.00
591.04	47913.11
591.20	47847.57
591.35	47976.30
591.51	48261.85
591.67	47819.49
591.83	48383.55
591.99	47950.56
592.15	48252.48
592.31	48615.27
592.46	48140.14
592.62	47814.80
592.78	48002.05
592.94	47400.53
593.10	47812.46
593.26	47875.66
593.41	48243.12
593.57	48109.71
593.73	47473.09
593.89	47707.14
594.05	47201.58
594.20	46773.27
594.36	46670.28
594.52	46117.92
594.68	46422.19
594.84	46307.50
594.99	47180.52
595.15	47054.13
595.31	47012.00
595.47	47248.39
595.62	47459.04
595.78	47730.54
595.94	47800.76
596.10	47927.15
596.25	47220.31
596.41	46986.25
596.57	46777.95
596.73	47311.59
596.88	47423.93
597.04	47047.11
597.20	46745.18
597.36	46761.56
597.51	46803.69
597.67	46689.01
597.83	46490.06
597.99	46326.22
598.14	45872.16
598.30	45923.65
598.46	45879.18
598.61	45897.91
598.77	46101.53
598.93	46429.21
599.09	46831.78
599.24	47070.51
599.40	46703.05
599.56	46614.11
599.71	46890.29
599.87	46808.37
600.03	46160.05
600.18	46183.45
600.34	45336.18
600.50	45275.32
600.65	45155.96
600.81	46089.83
600.97	45886.20
601.12	45670.87
601.28	45336.18
601.44	45170.00
601.59	44879.77
601.75	44741.68
601.91	44509.97
602.06	44395.28
602.22	45116.17
602.37	44732.32
602.53	45336.18
602.69	45624.06
602.84	45757.47
603.00	46131.96
603.16	45951.74
603.31	45918.97
603.47	45970.46
603.62	45825.35
603.78	45631.08
603.94	45567.89
604.09	45448.52
604.25	45069.36
604.40	45436.82
604.56	45298.73
604.71	45956.42
604.87	45390.01
605.03	45003.82
605.18	44638.70
605.34	44875.09
605.49	44657.42
605.65	45015.52
605.80	44947.65
605.96	44250.17
606.12	43920.15
606.27	44137.82
606.43	44311.02
606.58	44488.90
606.74	43913.13
606.89	44533.37
607.05	45022.54
607.20	44898.50
607.36	43943.56
607.51	44002.07
607.67	43508.22
607.82	43402.89
607.98	43529.28
608.13	43103.31
608.29	43505.88
608.44	43412.26
608.60	43091.60
608.75	43005.00
608.91	42850.53
609.06	42651.58
609.22	43234.38
609.37	42876.27
609.53	42918.40
609.68	42792.01
609.84	41972.83
609.99	41701.32
610.15	41808.99
610.30	41661.54
610.46	42211.56
610.61	42827.12
610.76	43086.92
610.92	43512.90
611.07	43330.34
611.23	43180.54
611.38	43058.84
611.54	42857.55
611.69	42019.64
611.84	41808.99
612.00	41361.95
612.15	41076.40
612.31	41617.07
612.46	41312.80
612.62	41762.18
612.77	41757.50
612.92	41970.49
613.08	41528.13
613.23	40437.44
613.39	39632.29
613.54	39501.22
613.69	39629.95
613.85	40088.70
614.00	40624.68
614.15	40423.39
614.31	40559.14
614.46	40896.18
614.62	40748.73
614.77	41198.11
614.92	40666.81
615.08	40669.15
615.23	40786.18
615.38	40287.64
615.54	39496.54
615.69	38562.67
615.84	37589.00
616.00	37848.80
616.15	37670.92
616.30	38370.74
616.46	38101.58
616.61	37909.66
616.76	38075.84
616.92	38656.29
617.07	38883.32
617.22	39171.21
617.37	38803.74
617.53	39768.04
617.68	39529.31
617.83	39629.95
617.99	39840.60
618.14	39608.89
618.29	39358.45
618.45	38913.75
618.60	38401.17
618.75	37993.92
618.90	38256.06
619.06	38768.63
619.21	38707.78
619.36	39531.65
619.51	39030.77
619.67	38712.46
619.82	38679.69
619.97	38869.28
620.12	38337.98
620.28	38838.85
620.43	39360.79
620.58	38967.58
620.73	39063.54
620.89	38686.71
621.04	38185.84
621.19	38068.81
621.34	37897.95
621.49	37432.19
621.65	37158.34
621.80	37687.31
621.95	37254.31
622.10	37680.28
622.25	37184.09
622.41	37392.40
622.56	36863.44
622.71	36477.25
622.86	35957.65
623.01	37001.53
623.16	36966.42
623.32	36924.29
623.47	36746.41
623.62	36449.16
623.77	36587.25
623.92	36009.14
624.07	35775.09
624.23	35405.28
624.38	34890.37
624.53	35550.40
624.68	35772.75
624.83	35431.03
624.98	35054.20
625.13	34829.51
625.29	34902.07
625.44	34422.26
625.59	34995.69
625.74	35377.20
625.89	35232.08
626.04	35112.72
626.19	34892.71
626.34	34911.43
626.49	35152.51
626.65	35056.54
626.80	35105.70
626.95	34944.20
627.10	35086.97
627.25	34422.26
627.40	33146.67
627.55	32491.32
627.70	32102.79
627.85	32826.01
628.00	32755.80
628.15	33787.97
628.30	33928.41
628.45	33804.36
628.60	33727.12
628.76	33663.93
628.91	33614.77
629.06	33219.22
629.21	33500.09
629.36	33240.29
629.51	32762.82
629.66	32446.85
629.81	32329.82
629.96	32327.48
630.11	32470.25
630.26	32889.21
630.41	33589.03
630.56	33095.18
630.71	33008.58
630.86	33493.07
631.01	32917.29
631.16	32423.44
631.31	31758.73
631.46	31548.08
631.61	32140.24
631.76	32266.63
631.91	32673.88
632.06	32453.87
632.21	32861.12
632.36	32968.79
632.51	32596.64
632.66	32769.84
632.81	32692.60
632.96	32734.73
633.10	32341.52
633.25	32231.52
633.40	31618.30
633.55	31772.77
633.70	31999.80
633.85	31910.86
634.00	32011.51
634.15	31964.70
634.30	31983.42
634.45	32032.57
634.60	31793.84
634.75	32116.83
634.90	32165.98
635.05	31814.90
635.19	31658.09
635.34	31672.13
635.49	31669.79
635.64	31496.59
635.79	31620.64
635.94	31241.47
636.09	31627.66
636.24	31447.44
636.39	31402.97
636.53	31784.48
636.68	31524.68
636.83	31749.37
636.98	31786.82
637.13	31716.60
637.28	31639.36
637.43	32093.43
637.57	31185.30
637.72	31002.74
637.87	31377.22
638.02	31482.55
638.17	31290.62
638.32	31611.28
638.46	31700.22
638.61	31349.14
638.76	31007.42
638.91	30813.15
639.06	30527.61
639.20	30827.20
639.35	30228.02
639.50	30249.08
639.65	29743.53
639.80	29853.53
639.94	30277.17
640.09	30113.33
640.24	30258.45
640.39	29968.22
640.54	29998.65
640.68	29504.79
640.83	29479.05
640.98	29326.91
641.13	29457.98
641.27	29628.84
641.42	29090.52
641.57	29465.00
641.72	29383.09
641.86	29420.53
642.01	29287.12
642.16	29729.48
642.31	29806.72
642.45	30017.37
642.60	29633.52
642.75	29076.48
642.90	29193.50
643.04	28924.34
643.19	29057.75
643.34	29472.03
643.48	28828.38
643.63	28601.35
643.78	28870.51
643.93	29277.76
644.07	29186.48
644.22	29516.50
644.37	29088.18
644.51	28910.30
644.66	28514.75
644.81	28343.89
644.95	28283.03
645.10	28547.51
645.25	28109.83
645.39	28362.61
645.54	28194.09
645.69	27845.35
645.83	27405.33
645.98	27318.73
646.13	27187.66
646.27	27810.25
646.42	27573.85
646.57	27365.54
646.71	27714.28
646.86	27220.43
647.00	27229.79
647.15	26986.38
647.30	26799.13
647.44	26810.84
647.59	27126.81
647.74	26473.80
647.88	26597.85
648.03	26438.69
648.17	27021.48
648.32	26719.56
648.47	26764.03
648.61	26890.41
648.76	26845.94
648.90	26167.19
649.05	25596.10
649.20	25043.73
649.34	25006.28
649.49	24905.64
649.63	25530.56
649.78	25703.76
649.92	26230.38
650.07	26628.27
650.21	26501.89
650.36	27033.19
650.51	26586.15
650.65	27194.68
650.80	26717.22
650.94	26321.66
651.09	26209.32
651.23	25458.01
651.38	25579.71
651.52	25345.66
651.67	25649.93
651.81	25495.46
651.96	26019.74
652.10	25919.09
652.25	25991.65
652.39	26265.49
652.54	26316.98
652.68	26108.68
652.83	25921.43
652.97	26024.42
653.12	25865.26
653.26	25680.36
653.41	26164.85
653.55	25769.30
653.70	25998.67
653.84	25759.94
653.99	25331.62
654.13	25235.66
654.27	24669.25
654.42	24606.05
654.56	24772.23
654.71	24540.52
654.85	24594.35
655.00	24051.34
655.14	24039.64
655.29	23403.02
655.43	23009.81
655.57	22185.94
655.72	20573.31
655.86	19213.46
656.01	18258.52
656.15	18319.37
656.30	19297.72
656.44	20416.49
656.58	21589.10
656.73	22443.40
656.87	22806.18
657.01	22637.66
657.16	23522.38
657.30	23943.68
657.45	23646.43
657.59	24402.43
657.73	23999.85
657.88	24245.61
658.02	24276.04
658.16	24432.85
658.31	23967.09
658.45	23763.46
658.60	24247.95
658.74	23927.30
658.88	23700.26
659.03	23077.68
659.17	23278.97
659.31	23321.10
659.46	23484.94
659.60	23672.18
659.74	23955.38
659.89	24020.92
660.03	23985.81
660.17	24212.84
660.32	24144.97
660.46	23866.44
660.60	23405.36
660.74	23580.90
660.89	23363.23
661.03	23651.11
661.17	23681.54
661.32	23501.32
661.46	23531.75
661.60	23433.44
661.74	23487.28
661.89	23337.48
662.03	23550.47
662.17	23367.91
662.31	23410.04
662.46	23309.40
662.60	23054.28
662.74	22843.63
662.88	22579.15
663.03	22214.02
663.17	22326.37
663.31	22635.32
663.45	22352.12
663.60	22824.90
663.74	22731.28
663.88	22682.13
664.02	22307.65
664.17	22370.84
664.31	22047.85
664.45	22361.48
664.59	22307.65
664.73	22572.13
664.88	22412.97
665.02	22225.73
665.16	22380.20
665.30	22246.79
665.44	22267.86
665.59	21996.35
665.73	21853.58
665.87	21420.58
666.01	21343.35
666.15	21518.89
666.29	21247.38
666.44	21493.14
666.58	21420.58
666.72	21619.53
666.86	21607.83
667.00	21626.55
667.14	21458.03
667.28	21254.40
667.43	21221.64
667.57	20950.14
667.71	20844.81
667.85	21195.89
667.99	20863.54
668.13	20908.01
668.27	21001.63
668.41	21027.37
668.56	20547.56
668.70	21078.86
668.84	20945.45
668.98	20463.30
669.12	20985.24
669.26	20547.56
669.40	20510.11
669.54	20535.86
669.68	20573.31
669.82	20294.79
669.96	20219.89
670.10	20322.87
670.25	20093.50
670.39	19726.04
670.53	19751.78
670.67	19754.12
670.81	20049.03
670.95	19824.34
671.09	19477.94
671.23	19576.24
671.37	19569.22
671.51	19536.45
671.65	19211.12
671.79	19634.75
671.93	19218.14
672.07	19440.49
672.21	19447.51
672.35	19220.48
672.49	19349.21
672.63	19122.18
672.77	19473.26
672.91	18848.33
673.05	18824.93
673.19	18944.30
673.33	19082.39
673.47	18890.46
673.61	18707.90
673.75	19014.51
673.89	18581.51
674.03	18801.52
674.17	18714.92
674.31	18857.70
674.45	18530.02
674.59	18590.88
674.73	18604.92
674.87	18225.75
675.01	17942.55
675.15	18125.11
675.29	18129.79
675.43	18333.42
675.56	18539.38
675.70	18281.92
675.84	17886.37
675.98	17493.16
676.12	18232.77
676.26	18082.98
676.40	17795.09
676.54	17593.81
676.68	17750.62
676.82	17542.32
676.96	17584.44
677.10	17528.27
677.23	17390.18
677.37	17420.61
677.51	17668.70
677.65	17436.99
677.79	17167.83
677.93	17270.81
678.07	17092.93
678.21	16652.91
678.34	16678.66
678.48	16685.68
678.62	16648.23
678.76	16882.28
678.90	16641.21
679.04	16718.45
679.18	16453.97
679.31	16142.67
679.45	16554.61
679.59	16203.53
679.73	16343.96
679.87	16334.60
680.00	16088.84
680.14	15812.66
680.28	15894.58
680.42	15742.44
680.56	15805.64
680.70	16039.69
680.83	15726.06
680.97	15719.04
681.11	15695.63
681.25	15597.33
681.39	15822.02
681.52	15676.91
681.66	15791.59
681.80	15227.53
681.94	15267.31
682.07	15566.90
682.21	15489.67
682.35	15377.32
682.49	14970.07
682.62	14974.75
682.76	14916.23
682.90	14867.08
683.04	14696.22
683.17	14724.31
683.31	14593.24
683.45	14473.87
683.59	14581.54
683.72	14480.89
683.86	13928.53
684.00	13926.19
684.13	13802.14
684.27	14029.17
684.41	13933.21
684.55	13998.74
684.68	14111.09
684.82	14129.81
684.96	13970.66
685.09	13792.78
685.23	13420.63
685.37	13532.98
685.50	13738.94
685.64	13650.00
685.78	13198.28
685.91	13280.20
686.05	13310.63
686.19	12933.80
686.32	12208.23
686.46	11037.97
686.60	9476.83
686.73	8957.23
686.87	8458.70
687.01	8252.73
687.14	8475.08
687.28	8823.82
687.42	9095.32
687.55	9474.49
687.69	10033.88
687.82	10497.30
687.96	11037.97
688.10	10939.66
688.23	10855.40
688.37	10499.64
688.50	10328.78
688.64	10333.47
688.78	10019.83
688.91	9895.78
689.05	9905.15
689.18	9940.26
689.32	10115.80
689.46	10015.15
689.59	10260.91
689.73	10298.36
689.86	10141.54
690.00	10438.79
690.13	10104.09
690.27	10113.45
690.41	10291.34
690.54	10345.17
690.68	10345.17
690.81	10366.23
690.95	10408.36
691.08	10190.69
691.22	10197.71
691.35	10399.00
691.49	10555.82
691.62	10291.34
691.76	10434.11
691.89	10506.66
692.03	10434.11
692.16	10115.80
692.30	10235.16
692.43	10078.35
692.57	9994.09
692.70	9872.38
692.84	9708.54
692.97	9839.61
693.11	9827.91
693.24	9799.82
693.38	9694.50
693.51	9460.45
693.65	9767.06
693.78	9558.75
693.92	9380.87
694.05	9242.78
694.19	9170.22
694.32	9425.34
694.45	9327.03
694.59	9289.59
694.72	9195.96
694.86	9193.62
694.99	9210.01
695.13	9275.54
695.26	9090.64
695.39	8922.12
695.53	9092.98
695.66	8938.51
695.80	8898.72
695.93	9048.51
696.07	9172.56
696.20	9083.62
696.33	9242.78
696.47	9263.84
696.60	9610.24
696.73	9401.93
696.87	9366.82
697.00	9497.89
697.14	9355.12
697.27	9252.14
697.40	9036.81
697.54	8587.43
697.67	8662.32
697.80	8645.94
697.94	8533.59
698.07	8641.26
698.21	8531.25
698.34	8358.05
698.47	8299.54
698.61	8173.15
698.74	8170.81
698.87	8189.53
699.01	8084.21
699.14	8177.83
699.27	8224.64
699.40	8058.46
699.54	8114.64
699.67	7899.31
699.80	8042.08
699.94	7896.97
700.07	7978.89
700.20	7721.43
700.34	7302.47
700.47	7400.77
700.60	7494.40
700.73	7646.53
700.87	7508.44
701.00	7410.14
701.13	7510.78
701.26	7335.24
701.40	7281.41
701.53	7232.26
701.66	7241.62
701.79	7349.28
701.93	7103.53
702.06	7318.86
702.19	7309.49
702.32	7215.87
702.46	7005.22
702.59	6930.33
702.72	7112.89
702.85	7026.29
702.99	7077.78
703.12	7169.06
703.25	7119.91
703.38	7059.06
703.51	6843.73
703.65	6813.30
703.78	6839.05
703.91	6832.02
704.04	7070.76
704.17	6829.68
704.31	6764.15
704.44	6799.26
704.57	6967.77
704.70	6899.90
704.83	6839.05
704.96	6724.36
705.10	6539.46
705.23	6480.94
>>>>>End Processed Spectral Data<<<<<
