SpectraSuite Data File
++++++++++++++++++++++++++++++++++++
Date: Mon Oct 07 14:52:56 GMT-05:00 2013
User: price-jones
Dark Spectrum Present: No
Reference Spectrum Present: No
Number of Sampled Component Spectra: 1
Spectrometers: USB2+H05261
Integration Time (usec): 100000 (USB2+H05261)
Spectra Averaged: 1 (USB2+H05261)
Boxcar Smoothing: 0 (USB2+H05261)
Correct for Electrical Dark: No (USB2+H05261)
Strobe/Lamp Enabled: No (USB2+H05261)
Correct for Detector Non-linearity: No (USB2+H05261)
Correct for Stray Light: No (USB2+H05261)
Number of Pixels in Processed Spectrum: 2048
>>>>>Begin Processed Spectral Data<<<<<
365.73	0.00
365.92	0.00
366.12	0.00
366.32	0.00
366.52	0.00
366.72	0.00
366.91	0.00
367.11	0.00
367.31	0.00
367.51	0.00
367.70	0.00
367.90	0.00
368.10	0.00
368.30	0.00
368.49	0.00
368.69	0.00
368.89	0.00
369.09	0.00
369.28	0.00
369.48	0.00
369.68	0.00
369.87	0.00
370.07	0.00
370.27	0.00
370.47	421.30
370.66	2331.17
370.86	2663.53
371.06	3087.17
371.25	3124.62
371.45	2752.47
371.65	2394.37
371.84	2352.24
372.04	2445.86
372.24	2773.53
372.44	2810.98
372.63	2789.92
372.83	2670.55
373.03	2275.00
373.22	2090.10
373.42	2225.85
373.62	2509.05
373.81	2717.36
374.01	2810.98
374.21	2553.52
374.40	2385.01
374.60	2443.52
374.79	2775.88
374.99	3178.45
375.19	3377.39
375.38	3433.57
375.58	3194.83
375.78	3229.94
375.97	3133.98
376.17	3311.86
376.37	3503.78
376.56	3496.76
376.76	3695.71
376.95	3758.90
377.15	4173.18
377.35	4177.86
377.54	4409.57
377.74	4643.62
377.93	4685.75
378.13	4535.96
378.33	4358.08
378.52	3948.48
378.72	3756.56
378.91	3768.26
379.11	3592.72
379.31	3508.46
379.50	3550.59
379.70	3728.47
379.89	4299.56
380.09	4428.29
380.28	4339.35
380.48	4620.22
380.68	4482.13
380.87	4292.54
381.07	3985.93
381.26	3765.92
381.46	3625.49
381.65	3463.99
381.85	3227.60
382.04	3141.00
382.24	2864.82
382.43	2796.94
382.63	2684.59
382.83	2663.53
383.02	2768.85
383.22	2710.34
383.41	2813.32
383.61	2970.14
383.80	3407.82
384.00	3992.95
384.19	4266.80
384.39	4418.93
384.58	4629.58
384.78	4475.10
384.97	4304.25
385.17	4138.07
385.36	4030.40
385.56	3742.52
385.75	3908.69
385.95	4224.67
386.14	4575.75
386.34	4779.37
386.53	4554.68
386.72	4219.99
386.92	4245.73
387.11	4498.51
387.31	4561.70
387.50	4631.92
387.70	4470.42
387.89	4386.16
388.09	4456.38
388.28	4365.10
388.48	4435.32
388.67	4877.68
388.86	5090.67
389.06	5694.52
389.25	6029.22
389.45	6139.23
389.64	5919.21
389.84	6139.23
390.03	5933.26
390.22	5795.17
390.42	6204.76
390.61	6410.73
390.81	7033.31
391.00	7014.59
391.19	7040.33
391.39	6850.75
391.58	6293.70
391.78	6036.24
391.97	5682.82
392.16	5352.81
392.36	4915.12
392.55	3861.88
392.75	3110.57
392.94	2693.96
393.13	2572.25
393.33	2944.39
393.52	3801.03
393.71	4835.55
393.91	5476.85
394.10	5650.05
394.29	6352.21
394.49	6745.42
394.68	7536.52
394.88	7363.33
395.07	7801.01
395.26	7674.62
395.46	7155.02
395.65	7037.99
395.84	5968.37
396.04	4898.74
396.23	4241.05
396.42	3435.91
396.62	3372.71
396.81	4102.96
397.00	5184.29
397.19	6377.96
397.39	7585.68
397.58	8372.10
397.77	9008.72
397.97	9259.16
398.16	9336.40
398.35	9771.74
398.55	9872.38
398.74	10408.36
398.93	10754.76
399.12	10361.55
399.32	10017.49
399.51	10216.44
399.70	10998.18
399.90	10906.90
400.09	10794.55
400.28	11052.01
400.47	10738.38
400.67	11276.70
400.86	11721.40
401.05	11613.74
401.24	11751.83
401.44	11887.58
401.63	11934.39
401.82	12215.26
402.01	11826.73
402.21	12266.75
402.40	12163.76
402.59	12023.33
402.78	11012.22
402.97	10867.11
403.17	11360.96
403.36	12161.42
403.55	12512.50
403.74	12924.44
403.93	11985.88
404.13	11197.12
404.32	10785.19
404.51	11506.07
404.70	12355.69
404.89	12678.68
405.09	12276.11
405.28	11875.88
405.47	11920.35
405.66	12013.97
405.85	11606.72
406.05	11164.36
406.24	11496.71
406.43	11899.28
406.62	12383.77
406.81	12652.94
407.00	11857.15
407.20	11618.42
407.39	11831.41
407.58	12308.88
407.77	12943.16
407.96	13392.55
408.15	13420.63
408.34	13544.68
408.54	14005.77
408.73	13989.38
408.92	13916.83
409.11	13444.04
409.30	12748.90
409.49	12070.14
409.68	11344.58
409.87	10892.85
410.07	11616.08
410.26	12624.85
410.45	13359.78
410.64	13610.22
410.83	14118.11
411.02	14438.76
411.21	15084.75
411.40	14979.43
411.59	15108.16
411.78	14817.93
411.98	14726.65
412.17	14991.13
412.36	14696.22
412.55	14736.01
412.74	14457.49
412.93	14008.11
413.12	14193.01
413.31	15655.84
413.50	16042.03
413.69	16030.33
413.88	15314.13
414.07	14869.42
414.26	15211.14
414.45	15424.13
414.64	15791.59
414.83	15674.57
415.02	15541.16
415.22	15564.56
415.41	15922.66
415.60	16339.28
415.79	17039.10
415.98	17338.69
416.17	17479.12
416.36	16666.95
416.55	16655.25
416.74	16018.63
416.93	15452.22
417.12	15587.97
417.31	15700.31
417.50	16016.29
417.69	16624.83
417.88	16622.48
418.07	16535.88
418.26	15995.22
418.45	16407.16
418.64	16737.17
418.83	17532.95
419.02	17111.66
419.21	17221.66
419.39	16257.36
419.58	15618.39
419.77	15730.74
419.96	16460.99
420.15	17123.36
420.34	17584.44
420.53	18251.50
420.72	18764.07
420.91	18438.74
421.10	18305.33
421.29	18052.55
421.48	17504.87
421.67	18576.83
421.86	17874.67
422.05	16578.01
422.24	14604.94
422.43	14743.03
422.61	16334.60
422.80	17544.66
422.99	17774.03
423.18	17317.62
423.37	16634.19
423.56	16966.54
423.75	17509.55
423.94	17497.84
424.13	16601.42
424.32	16929.09
424.50	16891.65
424.69	16475.03
424.88	16877.60
425.07	16582.70
425.26	16627.17
425.45	16645.89
425.64	16130.97
425.83	16318.22
426.01	17156.13
426.20	17497.84
426.39	17355.07
426.58	15992.88
426.77	14789.85
426.96	14391.95
427.15	14899.85
427.33	16224.59
427.52	16779.30
427.71	16758.24
427.90	16737.17
428.09	16510.14
428.28	16102.89
428.46	15473.28
428.65	15363.28
428.84	15597.33
429.03	16152.04
429.22	15246.25
429.40	14225.78
429.59	12985.29
429.78	11529.48
429.97	11686.29
430.16	11768.21
430.34	11580.97
430.53	11779.92
430.72	12196.53
430.91	13448.72
431.10	15737.76
431.28	18684.50
431.47	20088.82
431.66	20140.31
431.85	18431.72
432.03	16779.30
432.22	16311.19
432.41	16884.62
432.60	18796.84
432.79	19510.71
432.97	19630.07
433.16	19381.98
433.35	17493.16
433.54	15896.92
433.72	14824.95
433.91	15548.18
434.10	17479.12
434.28	18256.18
434.47	19468.58
434.66	19262.61
434.85	18834.29
435.03	18553.43
435.22	19075.37
435.41	20489.05
435.59	20201.16
435.78	20498.41
435.97	21418.24
436.16	21090.57
436.34	20657.57
436.53	20393.09
436.72	20245.63
436.90	19332.82
437.09	19110.47
437.28	19023.87
437.46	19791.57
437.65	19536.45
437.84	18047.87
438.02	16692.70
438.21	16950.16
438.40	17642.96
438.58	19213.46
438.77	19761.14
438.96	19829.02
439.14	20823.75
439.33	21317.60
439.52	21502.50
439.70	21275.47
439.89	20470.33
440.08	20388.41
440.26	19957.75
440.45	20882.26
440.63	22146.15
440.82	23321.10
441.01	22677.45
441.19	22668.09
441.38	22815.54
441.57	23943.68
441.75	24425.83
441.94	24393.06
442.12	24182.42
442.31	24814.36
442.50	24430.51
442.68	24322.85
442.87	24210.50
443.05	23578.56
443.24	24065.39
443.43	24556.90
443.61	25003.94
443.80	25266.08
443.98	23655.79
444.17	23882.83
444.35	25406.52
444.54	25481.41
444.73	25378.43
444.91	24446.90
445.10	23300.03
445.28	22455.10
445.47	22045.51
445.65	22501.91
445.84	22822.56
446.02	23929.64
446.21	23985.81
446.39	24049.00
446.58	24783.93
446.77	24903.30
446.95	25167.78
447.14	25673.34
447.32	26553.38
447.51	25448.64
447.69	24587.33
447.88	24245.61
448.06	24409.45
448.25	25305.87
448.43	25818.45
448.62	24460.94
448.80	24844.79
448.99	24830.74
449.17	25074.16
449.36	25319.92
449.54	26281.88
449.73	26122.72
449.91	26501.89
450.10	27688.54
450.28	27716.62
450.46	27718.96
450.65	27978.76
450.83	27260.22
451.02	27094.04
451.20	27042.55
451.39	27108.08
451.57	26579.12
451.76	26576.78
451.94	26415.29
452.13	26078.25
452.31	24863.51
452.49	23709.63
452.68	24100.50
452.86	24332.21
453.05	24154.33
453.23	25191.19
453.42	25781.00
453.60	26532.31
453.78	26813.18
453.97	26321.66
454.15	26293.58
454.34	25605.46
454.52	26246.77
454.70	25348.00
454.89	25479.07
455.07	26176.55
455.26	26223.36
455.44	27096.38
455.62	27608.96
455.81	27644.07
455.99	27253.20
456.17	27068.30
456.36	27339.80
456.54	28093.45
456.73	28493.68
456.91	28865.83
457.09	28545.17
457.28	29022.64
457.46	27524.70
457.64	27704.92
457.83	27143.19
458.01	26347.41
458.19	27267.24
458.38	27330.44
458.56	28273.67
458.74	28306.44
458.93	27674.49
459.11	27297.67
459.29	27152.55
459.48	27534.06
459.66	27339.80
459.84	27798.54
460.03	28355.59
460.21	27833.65
460.39	28774.55
460.57	28907.96
460.76	28744.12
460.94	29062.43
461.12	28903.28
461.31	28847.10
461.49	28503.04
461.67	28971.15
461.85	29266.06
462.04	29507.13
462.22	30211.64
462.40	29909.71
462.59	29392.45
462.77	29596.07
462.95	29710.76
463.13	29165.42
463.32	28659.86
463.50	28393.04
463.68	28781.57
463.86	28982.85
464.05	28425.81
464.23	28154.30
464.41	27828.97
464.59	27342.14
464.78	28425.81
464.96	28479.64
465.14	28203.46
465.32	28889.23
465.50	29493.09
465.69	29965.88
465.87	29357.34
466.05	28893.91
466.23	26855.31
466.41	26567.42
466.60	27391.29
466.78	27276.60
466.96	28095.79
467.14	28334.53
467.32	29095.20
467.51	28807.31
467.69	27402.99
467.87	28308.78
468.05	28374.31
468.23	28755.82
468.41	28577.94
468.60	29022.64
468.78	28854.12
468.96	28666.88
469.14	29099.88
469.32	28938.38
469.50	28177.71
469.69	28306.44
469.87	27974.08
470.05	28079.41
470.23	27505.98
470.41	27667.47
470.59	28294.74
470.77	28404.74
470.95	29137.33
471.14	29053.07
471.32	29546.92
471.50	30541.65
471.68	31505.95
471.86	31218.07
472.04	31166.57
472.22	31405.31
472.40	30120.35
472.58	29890.98
472.77	29486.07
472.95	30185.89
473.13	31131.47
473.31	30064.18
473.49	30422.28
473.67	30485.48
473.85	31255.51
474.03	31990.44
474.21	31889.80
474.39	31910.86
474.57	32268.97
474.75	32423.44
474.93	32034.91
475.12	31498.93
475.30	31557.44
475.48	31805.54
475.66	32161.30
475.84	31667.45
476.02	31101.04
476.20	30897.41
476.38	31580.85
476.56	32554.51
476.74	32739.41
476.92	33106.88
477.10	33619.46
477.28	34340.34
477.46	34220.97
477.64	34710.14
477.82	35093.99
478.00	35356.13
478.18	34396.51
478.36	34497.16
478.54	34656.31
478.72	34448.00
478.90	35772.75
479.08	36907.91
479.26	37186.43
479.44	36886.84
479.62	36793.22
479.80	36992.17
479.98	37184.09
480.16	37364.31
480.34	36456.18
480.52	37439.21
480.70	37612.41
480.88	37483.68
481.06	38181.16
481.24	38483.09
481.41	39599.52
481.59	39653.36
481.77	39473.13
481.95	38553.30
482.13	38684.37
482.31	38883.32
482.49	39896.77
482.67	39257.81
482.85	39779.74
483.03	40245.51
483.21	40561.48
483.39	40666.81
483.57	40013.80
483.74	39838.26
483.92	40032.52
484.10	40245.51
484.28	41081.08
484.46	41319.82
484.64	41787.92
484.82	40685.53
485.00	40692.55
485.18	39681.44
485.35	38511.17
485.53	35323.36
485.71	32381.31
485.89	32371.95
486.07	33984.58
486.25	36947.70
486.43	38820.13
486.61	39735.27
486.78	39660.38
486.96	40240.83
487.14	41504.72
487.32	42131.98
487.50	43262.46
487.68	44229.10
487.85	44406.98
488.03	44554.44
488.21	44025.48
488.39	43330.34
488.57	42660.94
488.75	42415.19
488.92	43803.13
489.10	45954.08
489.28	47873.32
489.46	48547.39
489.64	48137.80
489.81	48533.35
489.99	48531.01
490.17	47969.28
490.35	48327.38
490.53	47765.65
490.70	47353.72
490.88	47246.05
491.06	48533.35
491.24	48633.99
491.41	47540.96
491.59	45516.40
491.77	44573.16
491.95	45752.79
492.13	47770.33
492.30	48369.51
492.48	50007.89
492.66	50389.39
492.84	50391.73
493.01	49916.61
493.19	49378.28
493.37	49298.70
493.54	48577.82
493.72	49544.46
493.90	50681.96
494.08	51704.77
494.25	52114.37
494.43	52378.85
494.61	52793.12
494.79	52690.14
494.96	52612.90
495.14	51725.84
495.32	50564.93
495.49	50033.63
495.67	51412.21
495.85	52727.59
496.02	53389.96
496.20	52851.64
496.38	52151.82
496.55	52149.48
496.73	52954.62
496.91	53052.92
497.09	53918.92
497.26	53712.95
497.44	53188.67
497.62	52657.37
497.79	51765.63
497.97	50789.62
498.14	50504.08
498.32	51978.62
498.50	53031.86
498.67	53631.04
498.85	53160.59
499.03	53705.93
499.20	54042.97
499.38	53975.09
499.56	53584.22
499.73	53006.11
499.91	52982.71
500.08	52210.33
500.26	51295.18
500.44	51821.80
500.61	52563.75
500.79	52591.84
500.97	51749.24
501.14	51997.34
501.32	51636.90
501.49	51508.17
501.67	52336.72
501.84	52631.63
502.02	52783.76
502.20	52961.64
502.37	53343.15
502.55	53544.44
502.72	54464.27
502.90	54714.70
503.07	54047.65
503.25	53703.59
503.43	52809.51
503.60	51786.69
503.78	51470.72
503.95	52102.67
504.13	53434.43
504.30	54293.41
504.48	54206.81
504.65	54103.82
504.83	54014.88
505.01	54475.97
505.18	54890.24
505.36	55482.40
505.53	55550.27
505.71	55941.14
505.88	55842.84
506.06	55086.85
506.23	54738.11
506.41	54621.08
506.58	54990.89
506.76	54515.76
506.93	54550.87
507.11	54473.63
507.28	54515.76
507.46	53963.39
507.63	53408.68
507.81	53277.61
507.98	53619.33
508.16	54326.17
508.33	54981.52
508.50	55356.01
508.68	55503.46
508.85	55922.42
509.03	55934.12
509.20	55838.16
509.38	54908.97
509.55	54120.21
509.73	54372.99
509.90	54822.37
510.08	55442.61
510.25	55147.70
510.42	54688.96
510.60	54845.77
510.77	55194.51
510.95	55681.34
511.12	55917.74
511.30	56168.18
511.47	56481.81
511.64	56612.88
511.82	56259.46
511.99	55072.81
512.17	54789.60
512.34	54583.63
512.51	54665.55
512.69	54997.91
512.86	54827.05
513.04	55419.20
513.21	55430.91
513.38	54967.48
513.56	54246.60
513.73	53794.87
513.90	54017.22
514.08	54068.72
514.25	54508.74
514.43	54358.94
514.60	54557.89
514.77	54761.51
514.95	55000.25
515.12	54852.80
515.29	55269.41
515.47	55660.28
515.64	56133.07
515.81	55533.89
515.99	55002.59
516.16	53242.51
516.33	50375.35
516.51	49106.78
516.68	47995.03
516.85	47131.37
517.03	48308.66
517.20	51531.57
517.37	54049.99
517.54	55318.56
517.72	54190.42
517.89	51868.61
518.06	49134.87
518.24	49778.51
518.41	52109.69
518.58	53551.46
518.75	53542.10
518.93	53907.22
519.10	53764.45
519.27	54518.10
519.45	54593.00
519.62	55473.04
519.79	55718.79
519.96	55058.76
520.14	55011.95
520.31	54218.51
520.48	54178.72
520.65	54857.48
520.83	55587.72
521.00	55891.99
521.17	55508.14
521.34	55288.13
521.52	55426.23
521.69	56170.52
521.86	56481.81
522.03	56107.32
522.20	54550.87
522.38	53822.96
522.55	54148.29
522.72	54553.21
522.89	54649.17
523.07	55000.25
523.24	55157.06
523.41	56119.02
523.58	56203.28
523.75	56736.93
523.92	56757.99
524.10	56704.16
524.27	56652.67
524.44	56378.82
524.61	56182.22
524.78	56076.90
524.96	56016.04
525.13	55980.93
525.30	56170.52
525.47	56741.61
525.64	56659.69
525.81	55852.20
525.98	54258.30
526.16	52772.06
526.33	51824.14
526.50	51419.23
526.67	51016.66
526.84	51688.39
527.01	52987.39
527.18	53911.90
527.36	55075.15
527.53	55964.55
527.70	56067.53
527.87	55278.77
528.04	55016.63
528.21	55627.51
528.38	56491.17
528.55	56839.91
528.72	57254.18
528.89	57497.60
529.07	56970.98
529.24	56240.73
529.41	55767.94
529.58	55178.13
529.75	55206.22
529.92	55779.65
530.09	55994.98
530.26	56722.88
530.43	56708.84
530.60	56893.74
530.77	57073.96
530.94	57366.53
531.11	56671.39
531.28	56427.98
531.46	56119.02
531.63	56179.88
531.80	56116.68
531.97	55613.47
532.14	55121.96
532.31	53897.86
532.48	53048.24
532.65	53214.42
532.82	54321.49
532.99	55330.26
533.16	56018.38
533.33	56409.25
533.50	56100.30
533.67	55332.60
533.84	55079.83
534.01	55444.95
534.18	55625.17
534.35	55884.97
534.52	55510.49
534.69	55583.04
534.86	56168.18
535.03	56423.29
535.20	57001.41
535.37	57244.82
535.54	57254.18
535.71	56870.34
535.88	56411.59
536.05	55746.88
536.22	55395.80
536.38	55288.13
536.55	54574.27
536.72	54199.79
536.89	54204.47
537.06	55009.61
537.23	55962.21
537.40	56219.67
537.57	56271.16
537.74	55821.78
537.91	55997.32
538.08	56097.96
538.25	55749.22
538.42	56182.22
538.59	55803.05
538.75	55103.23
538.92	54813.01
539.09	54691.30
539.26	54745.13
539.43	54539.16
539.60	54300.43
539.77	54621.08
539.94	54607.04
540.11	53677.85
540.28	53228.46
540.44	53361.87
540.61	53457.84
540.78	53851.05
540.95	54574.27
541.12	54768.54
541.29	54789.60
541.46	55468.36
541.62	55487.08
541.79	55100.89
541.96	54653.85
542.13	54541.50
542.30	54848.11
542.47	55110.25
542.63	54497.03
542.80	54485.33
542.97	54607.04
543.14	54672.57
543.31	54621.08
543.48	55042.38
543.64	55941.14
543.81	56353.08
543.98	55983.27
544.15	55344.31
544.32	54719.38
544.48	54836.41
544.65	55496.44
544.82	55639.22
544.99	55248.35
545.16	54820.03
545.32	54600.02
545.49	55831.14
545.66	55798.37
545.83	55529.21
546.00	55264.73
546.16	54993.23
546.33	54873.86
546.50	54845.77
546.67	55414.52
546.83	54906.63
547.00	54815.35
547.17	54129.57
547.34	53731.68
547.50	53780.83
547.67	54042.97
547.84	54003.18
548.00	54632.78
548.17	55075.15
548.34	54883.22
548.51	55103.23
548.67	54738.11
548.84	54913.65
549.01	55112.59
549.18	54717.04
549.34	54674.91
549.51	54667.89
549.68	54759.17
549.84	54122.55
550.01	54188.08
550.18	54260.64
550.34	54375.33
550.51	54431.50
550.68	54674.91
550.84	53949.35
551.01	54099.14
551.18	54211.49
551.34	54246.60
551.51	54782.58
551.68	54759.17
551.84	54637.47
552.01	54506.40
552.18	54365.96
552.34	53745.72
552.51	53464.86
552.68	53387.62
552.84	53769.13
553.01	54101.48
553.18	53822.96
553.34	54075.74
553.51	54225.53
553.67	54827.05
553.84	54600.02
554.01	54691.30
554.17	54419.80
554.34	54164.68
554.51	54810.67
554.67	54899.61
554.84	54871.52
555.00	54024.25
555.17	53947.01
555.33	53914.24
555.50	53993.82
555.67	54045.31
555.83	53888.49
556.00	53418.05
556.16	53584.22
556.33	52893.77
556.50	52865.68
556.66	53127.82
556.83	52636.31
556.99	52858.66
557.16	53050.58
557.32	53183.99
557.49	53560.82
557.65	53474.22
557.82	53368.90
557.98	53083.35
558.15	52652.69
558.32	51929.47
558.48	51334.97
558.65	51194.54
558.81	51379.44
558.98	51681.37
559.14	52074.58
559.31	52147.14
559.47	52023.09
559.64	51798.40
559.80	51194.54
559.97	51405.19
560.13	52161.18
560.30	53294.00
560.46	53724.66
560.63	54017.22
560.79	53858.07
560.96	53329.11
561.12	52226.71
561.29	50866.86
561.45	51129.00
561.61	51789.03
561.78	52449.06
561.94	52411.62
562.11	52161.18
562.27	51728.18
562.44	52184.58
562.60	52685.46
562.77	52889.09
562.93	52889.09
563.10	52823.55
563.26	52158.84
563.42	52126.07
563.59	52044.15
563.75	51985.64
563.92	51885.00
564.08	51868.61
564.24	52226.71
564.41	52301.61
564.57	52112.03
564.74	52046.49
564.90	51980.96
565.07	51686.05
565.23	51154.75
565.39	50419.82
565.56	50588.34
565.72	49893.20
565.88	50574.30
566.05	50541.53
566.21	50700.68
566.38	51262.41
566.54	51313.90
566.70	51650.94
566.87	51824.14
567.03	51838.18
567.19	51896.70
567.36	51856.91
567.52	51791.37
567.68	50857.50
567.85	50506.42
568.01	50120.23
568.17	49020.18
568.34	49586.59
568.50	49619.36
568.66	49956.39
568.83	50487.70
568.99	50513.44
569.15	50623.45
569.32	50550.89
569.48	50150.66
569.64	49701.28
569.81	49668.51
569.97	49614.68
570.13	49186.36
570.30	48903.15
570.46	48435.05
570.62	47437.98
570.78	47681.39
570.95	48037.16
571.11	49031.88
571.27	49151.25
571.43	49581.91
571.60	49755.11
571.76	50309.82
571.92	50445.57
572.09	50543.87
572.25	50586.00
572.41	50316.84
572.57	50286.41
572.74	50054.70
572.90	49614.68
573.06	49785.54
573.22	49549.14
573.38	49600.63
573.55	49563.18
573.71	50174.06
573.87	50042.99
574.03	49542.12
574.20	49308.07
574.36	49074.01
574.52	49296.36
574.68	48893.79
574.84	48428.02
575.01	47681.39
575.17	47889.70
575.33	48034.81
575.49	48727.61
575.65	48439.73
575.82	48219.72
575.98	48313.34
576.14	48318.02
576.30	48809.53
576.46	48772.08
576.62	48418.66
576.79	48631.65
576.95	48374.19
577.11	47966.94
577.27	48320.36
577.43	47973.96
577.59	47793.74
577.75	47304.57
577.92	46972.21
578.08	46649.22
578.24	46796.67
578.40	47110.30
578.56	47103.28
578.72	47538.62
578.88	47573.73
579.04	47789.06
579.21	48151.84
579.37	47751.61
579.53	47945.87
579.69	48186.95
579.85	47945.87
580.01	47838.21
580.17	47552.66
580.33	47070.51
580.49	47103.28
580.65	47587.77
580.82	48002.05
580.98	47672.03
581.14	47728.20
581.30	47934.17
581.46	47454.36
581.62	47791.40
581.78	48376.53
581.94	48374.19
582.10	48374.19
582.26	48353.13
582.42	48128.44
582.58	47852.25
582.74	48109.71
582.90	48161.20
583.06	48233.76
583.22	47824.17
583.38	47700.12
583.54	47622.88
583.70	47246.05
583.86	47646.29
584.02	47770.33
584.18	47758.63
584.34	47667.35
584.50	47009.66
584.66	47147.75
584.82	46789.65
584.98	46684.33
585.14	46216.22
585.30	44978.07
585.46	45113.83
585.62	45024.89
585.78	45310.43
585.94	45933.01
586.10	46064.08
586.26	46387.08
586.42	46241.96
586.58	46995.62
586.74	46754.54
586.90	46698.37
587.06	46066.42
587.22	46461.97
587.38	45904.93
587.54	46012.59
587.70	45359.58
587.86	45275.32
588.02	44449.11
588.18	44648.06
588.34	42710.10
588.49	40987.46
588.65	38838.85
588.81	39014.39
588.97	39229.72
589.13	39332.70
589.29	38810.76
589.45	39777.40
589.61	40612.98
589.77	42265.39
589.93	43363.11
590.08	43849.94
590.24	44023.14
590.40	44133.14
590.56	44069.95
590.72	43887.39
590.88	43524.60
591.04	43117.35
591.20	43110.33
591.35	43178.20
591.51	43803.13
591.67	43344.38
591.83	43782.06
591.99	43569.07
592.15	43388.85
592.31	43859.30
592.46	43505.88
592.62	43519.92
592.78	43065.86
592.94	43070.54
593.10	43260.12
593.26	44058.24
593.41	44102.71
593.57	43730.57
593.73	42838.83
593.89	42836.48
594.05	42728.82
594.20	42087.51
594.36	41619.41
594.52	41462.59
594.68	41846.44
594.84	41570.25
594.99	42644.56
595.15	42581.37
595.31	42380.08
595.47	43042.45
595.62	42623.50
595.78	42752.23
595.94	43077.56
596.10	42813.08
596.25	42672.65
596.41	42284.12
596.57	42029.00
596.73	42417.53
596.88	42946.49
597.04	42396.46
597.20	42618.81
597.36	41691.96
597.51	41853.46
597.67	42230.29
597.83	41804.31
597.99	41549.19
598.14	41397.06
598.30	41209.81
598.46	41158.32
598.61	41598.34
598.77	41675.58
598.93	41841.76
599.09	42183.48
599.24	42143.69
599.40	41902.61
599.56	41855.80
599.71	41738.77
599.87	41851.12
600.03	41752.82
600.18	40713.62
600.34	40978.10
600.50	40933.63
600.65	41198.11
600.81	41137.26
600.97	40861.07
601.12	40989.80
601.28	40921.93
601.44	40671.49
601.59	40465.52
601.75	40069.97
601.91	39985.71
602.06	40009.12
602.22	40362.54
602.37	40217.43
602.53	40493.61
602.69	41130.23
602.84	41537.49
603.00	41221.52
603.16	42024.32
603.31	41422.80
603.47	41146.62
603.62	40999.16
603.78	40933.63
603.94	40610.64
604.09	40905.54
604.25	40329.77
604.40	40531.06
604.56	40334.45
604.71	41123.21
604.87	40950.01
605.03	40261.90
605.18	40575.53
605.34	40041.88
605.49	40081.67
605.65	40650.42
605.80	40388.28
605.96	40020.82
606.12	39690.80
606.27	39777.40
606.43	40069.97
606.58	40245.51
606.74	40034.86
606.89	39983.37
607.05	40643.40
607.20	40432.75
607.36	39498.88
607.51	39683.78
607.67	39367.81
607.82	39814.85
607.98	38754.59
608.13	38789.70
608.29	38719.48
608.44	38843.53
608.60	38337.98
608.75	38763.95
608.91	38864.60
609.06	38253.72
609.22	38969.92
609.37	39026.09
609.53	38796.72
609.68	38099.24
609.84	37766.88
609.99	37656.88
610.15	37591.34
610.30	37759.86
610.46	37794.97
610.61	38382.45
610.76	38431.60
610.92	38883.32
611.07	39220.36
611.23	39386.54
611.38	39140.78
611.54	38600.12
611.69	37724.75
611.84	37055.36
612.00	36814.29
612.15	37069.40
612.31	37361.97
612.46	37221.54
612.62	37205.16
612.77	37577.30
612.92	37668.58
613.08	37214.52
613.23	36154.26
613.39	35662.74
613.54	35922.54
613.69	36128.51
613.85	35952.97
614.00	36444.48
614.15	36299.37
614.31	36847.05
614.46	36776.84
614.62	36662.15
614.77	36624.70
614.92	37102.17
615.08	36194.04
615.23	36488.95
615.38	35861.69
615.54	34974.63
615.69	34717.17
615.84	33692.01
616.00	34043.09
616.15	34251.40
616.30	34672.70
616.46	34352.04
616.61	34122.67
616.76	34960.58
616.92	34845.90
617.07	35075.27
617.22	34857.60
617.37	35239.11
617.53	35847.64
617.68	35409.96
617.83	35559.76
617.99	35920.20
618.14	35501.25
618.29	35789.13
618.45	35000.37
618.60	34932.50
618.75	34410.56
618.90	34719.51
619.06	34866.96
619.21	34993.35
619.36	34780.36
619.51	34808.45
619.67	34728.87
619.82	34712.49
619.97	35124.42
620.12	34913.77
620.28	34726.53
620.43	34995.69
620.58	35262.51
620.73	35112.72
620.89	34094.58
621.04	34094.58
621.19	34000.96
621.34	33900.32
621.49	33795.00
621.65	33504.77
621.80	33736.48
621.95	33553.92
622.10	34316.93
622.25	33736.48
622.41	33441.57
622.56	33326.89
622.71	32594.30
622.86	32936.02
623.01	32744.09
623.16	32833.04
623.32	33102.20
623.47	32851.76
623.62	32910.27
623.77	32411.74
623.92	32004.49
624.07	32016.19
624.23	31281.26
624.38	31960.02
624.53	31983.42
624.68	31845.33
624.83	31580.85
624.98	31332.75
625.13	31267.22
625.29	31232.11
625.44	31372.54
625.59	31049.55
625.74	31447.44
625.89	31784.48
626.04	31463.82
626.19	31501.27
626.34	31995.12
626.49	32142.58
626.65	31850.01
626.80	31573.83
626.95	31367.86
627.10	30960.61
627.25	30543.99
627.40	29663.95
627.55	29123.29
627.70	29029.66
627.85	29303.51
628.00	29247.33
628.15	30349.73
628.30	30249.08
628.45	30651.66
628.60	30316.96
628.76	30682.08
628.91	30359.09
629.06	30228.02
629.21	30054.82
629.36	29788.00
629.51	29432.24
629.66	29212.23
629.81	28868.17
629.96	29071.79
630.11	29071.79
630.26	29762.25
630.41	29972.90
630.56	29741.19
630.71	29919.07
630.86	29851.19
631.01	29308.19
631.16	29273.08
631.31	28498.36
631.46	28224.52
631.61	28706.67
631.76	28854.12
631.91	28919.66
632.06	29149.03
632.21	29963.54
632.36	29621.82
632.51	29610.12
632.66	29862.90
632.81	29596.07
632.96	28933.70
633.10	29179.46
633.25	28481.98
633.40	28587.30
633.55	28505.38
633.70	28510.07
633.85	28517.09
634.00	28416.44
634.15	28936.04
634.30	29064.77
634.45	28669.22
634.60	28662.20
634.75	28694.97
634.90	28985.19
635.05	28465.60
635.19	28652.84
635.34	28638.80
635.49	28603.69
635.64	28711.35
635.79	28542.83
635.94	28074.73
636.09	28266.65
636.24	28147.28
636.39	28325.16
636.53	28137.92
636.68	27995.15
636.83	28278.35
636.98	28683.27
637.13	28423.47
637.28	28587.30
637.43	28933.70
637.57	28638.80
637.72	28339.21
637.87	28624.75
638.02	28194.09
638.17	28421.13
638.32	28264.31
638.46	28236.22
638.61	28250.27
638.76	27634.71
638.91	27707.26
639.06	27615.98
639.20	27630.02
639.35	27311.71
639.50	26909.14
639.65	26981.70
639.80	27019.14
639.94	27206.39
640.09	27442.78
640.24	26941.91
640.39	26998.08
640.54	26520.61
640.68	26747.64
640.83	26665.72
640.98	26202.30
641.13	26501.89
641.27	26761.69
641.42	26450.39
641.57	26731.26
641.72	26162.51
641.86	26485.50
642.01	26251.45
642.16	26918.50
642.31	26625.93
642.45	26518.27
642.60	26555.72
642.75	26668.06
642.90	26253.79
643.04	25998.67
643.19	26361.45
643.34	26445.71
643.48	26202.30
643.63	25825.47
643.78	26134.42
643.93	26539.33
644.07	26892.76
644.22	26621.25
644.37	26277.19
644.51	26132.08
644.66	25930.80
644.81	26005.69
644.95	25940.16
645.10	25399.49
645.25	25406.52
645.39	25371.41
645.54	24971.18
645.69	25081.18
645.83	24987.56
645.98	24657.54
646.13	24552.22
646.27	24875.21
646.42	24594.35
646.57	24463.28
646.71	24692.65
646.86	24577.97
647.00	24161.35
647.15	24201.14
647.30	24126.24
647.44	23798.57
647.59	24201.14
647.74	24023.26
647.88	24217.52
648.03	23885.17
648.17	24135.60
648.32	23859.42
648.47	24500.73
648.61	24290.08
648.76	23913.25
648.90	23805.59
649.05	22600.21
649.20	22476.16
649.34	22057.21
649.49	22508.93
649.63	22998.10
649.78	23494.30
649.92	23407.70
650.07	23997.51
650.21	23990.49
650.36	24177.73
650.51	23985.81
650.65	24250.29
650.80	24285.40
650.94	23995.17
651.09	23241.52
651.23	23073.00
651.38	23035.55
651.52	22773.41
651.67	23091.73
651.81	23145.56
651.96	23335.14
652.10	23103.43
652.25	23634.73
652.39	23365.57
652.54	23552.81
652.68	23480.25
652.83	23290.67
652.97	23236.84
653.12	23206.41
653.26	23073.00
653.41	23396.00
653.55	23398.34
653.70	23562.17
653.84	23297.69
653.99	23033.21
654.13	22808.52
654.27	22490.21
654.42	21872.31
654.56	22122.74
654.71	22129.77
654.85	21926.14
655.00	21895.71
655.14	21385.47
655.29	21280.15
655.43	20795.66
655.57	19655.82
655.72	18616.62
655.86	17319.96
656.01	16248.00
656.15	16786.32
656.30	17797.43
656.44	18506.62
656.58	19449.85
656.73	20198.82
656.87	20439.90
657.01	20758.21
657.16	21270.79
657.30	21404.20
657.45	21537.61
657.59	21900.39
657.73	21394.84
657.88	21942.52
658.02	21862.94
658.16	21598.46
658.31	21788.05
658.45	21893.37
658.60	21549.31
658.74	21322.28
658.88	20992.26
659.03	20929.07
659.17	20929.07
659.31	21188.87
659.46	21336.32
659.60	21823.16
659.74	21495.48
659.89	21467.39
660.03	21724.85
660.17	21687.40
660.32	22118.06
660.46	21422.92
660.60	21329.30
660.74	21249.72
660.89	21420.58
661.03	21390.16
661.17	21425.26
661.32	21057.80
661.46	21099.93
661.60	21338.66
661.74	21200.57
661.89	21223.98
662.03	20807.36
662.17	20875.24
662.31	21120.99
662.46	21193.55
662.60	20732.47
662.74	20737.15
662.88	20606.08
663.03	20409.47
663.17	20247.97
663.31	20142.65
663.45	20669.27
663.60	20264.36
663.74	20065.41
663.88	20238.61
664.02	20067.75
664.17	20166.06
664.31	20119.24
664.45	20290.10
664.59	20250.32
664.73	20439.90
664.88	20589.69
665.02	20166.06
665.16	20098.18
665.30	20149.67
665.44	20053.71
665.59	19709.65
665.73	19896.89
665.87	19414.74
666.01	19171.33
666.15	19311.76
666.29	19206.44
666.44	19414.74
666.58	19316.44
666.72	19246.23
666.86	19253.25
667.00	19782.21
667.14	19192.39
667.28	18719.60
667.43	19096.43
667.57	18977.06
667.71	19304.74
667.85	19073.03
667.99	19129.20
668.13	18967.70
668.27	19033.24
668.41	19241.54
668.56	18831.95
668.70	18817.91
668.84	18956.00
668.98	18937.27
669.12	18541.72
669.26	18581.51
669.40	18733.65
669.54	18600.24
669.68	18417.68
669.82	18375.55
669.96	18300.65
670.10	18326.39
670.25	18347.46
670.39	18150.85
670.53	17954.25
670.67	17818.50
670.81	17998.72
670.95	17722.54
671.09	17717.86
671.23	17834.88
671.37	17303.58
671.51	17586.79
671.65	17481.46
671.79	17523.59
671.93	17722.54
672.07	17912.12
672.21	17575.08
672.35	17240.39
672.49	17654.66
672.63	17460.40
672.77	17509.55
672.91	17249.75
673.05	17177.19
673.19	17060.16
673.33	17282.52
673.47	16971.22
673.61	16896.33
673.75	17233.36
673.89	17266.13
674.03	16893.99
674.17	16760.58
674.31	16690.36
674.45	16596.74
674.59	16795.68
674.73	16783.98
674.87	16339.28
675.01	16360.34
675.15	16362.69
675.29	16414.18
675.43	16416.52
675.56	16603.76
675.70	16442.26
675.84	16449.28
675.98	16276.09
676.12	16379.07
676.26	16545.25
676.40	15960.11
676.54	15885.22
676.68	15892.24
676.82	15716.70
676.96	15906.28
677.10	15901.60
677.23	16079.48
677.37	15784.57
677.51	15845.43
677.65	15866.49
677.79	15276.68
677.93	15487.32
678.07	15531.80
678.21	15222.84
678.34	15021.56
678.48	15012.20
678.62	15009.86
678.76	15108.16
678.90	14967.73
679.04	14977.09
679.18	15073.05
679.31	14963.04
679.45	15103.48
679.59	14874.10
679.73	14658.78
679.87	14670.48
680.00	14803.89
680.14	14600.26
680.28	14417.70
680.42	14146.20
680.56	14408.34
680.70	14293.65
680.83	14141.52
680.97	13963.64
681.11	14153.22
681.25	14125.13
681.39	14216.41
681.52	14108.75
681.66	13968.32
681.80	13813.84
681.94	13980.02
682.07	14190.67
682.21	13884.06
682.35	13635.96
682.49	13575.11
682.62	13455.74
682.76	13488.51
682.90	13514.25
683.04	13486.17
683.17	13437.02
683.31	13319.99
683.45	13160.83
683.59	13102.32
683.72	12648.26
683.86	12917.42
684.00	12603.78
684.13	12863.58
684.27	12664.64
684.41	12917.42
684.55	12842.52
684.68	12561.66
684.82	12844.86
684.96	12692.73
685.09	12425.90
685.23	12257.39
685.37	12100.57
685.50	12037.38
685.64	12060.78
685.78	12060.78
685.91	12072.48
686.05	12060.78
686.19	11520.12
686.32	10895.19
686.46	9605.56
686.60	8634.24
686.73	7922.71
686.87	7506.10
687.01	7459.29
687.14	7478.01
687.28	7824.41
687.42	8294.86
687.55	8587.43
687.69	9069.58
687.82	9558.75
687.96	9764.72
688.10	9774.08
688.23	9586.83
688.37	9694.50
688.50	9472.15
688.64	9458.10
688.78	8847.22
688.91	9146.81
689.05	8978.30
689.18	9041.49
689.32	8919.78
689.46	8894.04
689.59	9191.28
689.73	9228.73
689.86	9160.86
690.00	9100.00
690.13	9275.54
690.27	9439.38
690.41	9404.27
690.54	9252.14
690.68	9392.57
690.81	9273.20
690.95	9481.51
691.08	9415.98
691.22	9362.14
691.35	9385.55
691.49	9385.55
691.62	9537.68
691.76	9561.09
691.89	9376.19
692.03	9476.83
692.16	9233.41
692.30	9219.37
692.43	9233.41
692.57	9034.47
692.70	8898.72
692.84	8952.55
692.97	8844.88
693.11	9020.42
693.24	8987.66
693.38	8767.65
693.51	8620.19
693.65	8638.92
693.78	8468.06
693.92	8496.14
694.05	8505.51
694.19	8397.84
694.32	8461.04
694.45	8477.42
694.59	8381.46
694.72	8477.42
694.86	8313.58
694.99	8292.52
695.13	8217.62
695.26	8194.22
695.39	8006.97
695.53	8280.82
695.66	8280.82
695.80	8046.76
695.93	8021.02
696.07	8037.40
696.20	8390.82
696.33	8414.23
696.47	8444.65
696.60	8552.32
696.73	8573.38
696.87	8519.55
697.00	8575.72
697.14	8407.20
697.27	8180.17
697.40	8114.64
697.54	7957.82
697.67	7836.11
697.80	7763.56
697.94	7779.94
698.07	7749.51
698.21	7318.86
698.34	7604.40
698.47	7468.65
698.61	7353.96
698.74	7571.63
698.87	7372.69
699.01	7379.71
699.14	7267.36
699.27	7349.28
699.40	7389.07
699.54	7300.13
699.67	7124.59
699.80	7089.48
699.94	7232.26
700.07	6965.43
700.20	6967.77
700.34	6911.60
700.47	6881.18
700.60	6754.79
700.73	6902.24
700.87	6995.86
701.00	6609.67
701.13	6846.07
701.26	6693.93
701.40	6516.05
701.53	6581.59
701.66	6436.47
701.79	6546.48
701.93	6778.19
702.06	6436.47
702.19	6324.13
702.32	6441.15
702.46	6438.81
702.59	6342.85
702.72	6473.92
702.85	6296.04
702.99	6590.95
703.12	6469.24
703.25	6239.87
703.38	6347.53
703.51	5996.45
703.65	6010.50
703.78	6179.01
703.91	6188.38
704.04	6392.00
704.17	6394.34
704.31	6162.63
704.44	6274.98
704.57	6256.25
704.70	6169.65
704.83	6242.21
704.96	5902.83
705.10	5930.92
705.23	5966.03
>>>>>End Processed Spectral Data<<<<<
