SpectraSuite Data File
++++++++++++++++++++++++++++++++++++
Date: Mon Oct 07 14:54:02 GMT-05:00 2013
User: price-jones
Dark Spectrum Present: No
Reference Spectrum Present: No
Number of Sampled Component Spectra: 1
Spectrometers: USB2+H05261
Integration Time (usec): 100000 (USB2+H05261)
Spectra Averaged: 1 (USB2+H05261)
Boxcar Smoothing: 0 (USB2+H05261)
Correct for Electrical Dark: No (USB2+H05261)
Strobe/Lamp Enabled: No (USB2+H05261)
Correct for Detector Non-linearity: No (USB2+H05261)
Correct for Stray Light: No (USB2+H05261)
Number of Pixels in Processed Spectrum: 2048
>>>>>Begin Processed Spectral Data<<<<<
365.73	0.00
365.92	0.00
366.12	0.00
366.32	0.00
366.52	0.00
366.72	0.00
366.91	0.00
367.11	0.00
367.31	0.00
367.51	0.00
367.70	0.00
367.90	0.00
368.10	0.00
368.30	0.00
368.49	0.00
368.69	0.00
368.89	0.00
369.09	0.00
369.28	0.00
369.48	0.00
369.68	0.00
369.87	0.00
370.07	0.00
370.27	0.00
370.47	777.06
370.66	3627.83
370.86	4287.86
371.06	4510.21
371.25	4681.07
371.45	4217.65
371.65	3826.78
371.84	3442.93
372.04	3641.87
372.24	4222.33
372.44	4351.06
372.63	4407.23
372.83	4159.13
373.03	3440.59
373.22	3145.68
373.42	3466.33
373.62	4014.02
373.81	4365.10
374.01	4091.26
374.21	3758.90
374.40	3440.59
374.60	3602.08
374.79	4152.11
374.99	4858.95
375.19	5242.80
375.38	5207.69
375.58	4896.40
375.78	4880.02
375.97	4933.85
376.17	5036.83
376.37	4957.25
376.56	5247.48
376.76	5570.48
376.95	5802.19
377.15	6106.46
377.35	6406.05
377.54	6801.60
377.74	6956.07
377.93	6860.11
378.13	6684.57
378.33	6384.98
378.52	5966.03
378.72	5755.38
378.91	5633.67
379.11	5350.46
379.31	5142.16
379.50	5334.08
379.70	5633.67
379.89	6157.95
380.09	6541.80
380.28	7009.90
380.48	6855.43
380.68	6569.88
380.87	6392.00
381.07	6047.94
381.26	5561.11
381.46	5315.36
381.65	4987.68
381.85	4854.27
382.04	4674.05
382.24	4358.08
382.43	4252.75
382.63	4035.08
382.83	4067.85
383.02	4119.34
383.22	4021.04
383.41	4152.11
383.61	4322.97
383.80	4901.08
384.00	5678.14
384.19	6420.09
384.39	6642.44
384.58	6588.61
384.78	6518.39
384.97	6410.73
385.17	6164.97
385.36	5973.05
385.56	5551.75
385.75	5764.74
385.95	6345.19
386.14	6801.60
386.34	6719.68
386.53	6628.40
386.72	6150.93
386.92	6083.05
387.11	6394.34
387.31	6747.76
387.50	6731.38
387.70	6361.58
387.89	6375.62
388.09	6490.31
388.28	6469.24
388.48	6602.65
388.67	7260.34
388.86	7896.97
389.06	8414.23
389.25	8585.08
389.45	8884.67
389.64	8877.65
389.84	8737.22
390.03	8500.83
390.22	8664.66
390.42	8812.12
390.61	9460.45
390.81	10068.98
391.00	10438.79
391.19	10328.78
391.39	9926.21
391.58	9401.93
391.78	8772.33
391.97	8451.67
392.16	7882.92
392.36	7164.38
392.55	5750.70
392.75	4594.47
392.94	3728.47
393.13	3859.54
393.33	4454.04
393.52	5666.44
393.71	6883.52
393.91	7665.25
394.10	8400.18
394.29	9202.99
394.49	10038.56
394.68	10513.69
394.88	10661.14
395.07	11077.76
395.26	10991.16
395.46	10757.10
395.65	10083.03
395.84	8971.27
396.04	7606.74
396.23	5959.00
396.42	5029.81
396.62	4821.50
396.81	5671.12
397.00	7190.13
397.19	9062.55
397.39	10516.03
397.58	12131.00
397.77	12819.11
397.97	13490.85
398.16	13586.81
398.35	13874.70
398.55	14462.17
398.74	15023.90
398.93	15276.68
399.12	15342.21
399.32	14761.76
399.51	14733.67
399.70	15819.68
399.90	15700.31
400.09	15492.01
400.28	15445.20
400.47	15882.88
400.67	16512.48
400.86	16868.24
401.05	16833.13
401.24	16666.95
401.44	17025.06
401.63	17303.58
401.82	17474.44
402.01	17252.09
402.21	17436.99
402.40	17664.02
402.59	16882.28
402.78	16343.96
402.97	15639.46
403.17	16355.66
403.36	17163.15
403.55	17996.38
403.74	18785.14
403.93	17366.78
404.13	16009.26
404.32	15712.02
404.51	16257.36
404.70	17727.22
404.89	17813.82
405.09	17298.90
405.28	16980.59
405.47	16856.54
405.66	17055.48
405.85	16552.27
406.05	15864.15
406.24	16205.87
406.43	16968.88
406.62	17877.01
406.81	17788.07
407.00	17039.10
407.20	16819.09
407.39	16755.90
407.58	17296.56
407.77	18345.12
407.96	18897.49
408.15	18998.13
408.34	19180.69
408.54	20011.58
408.73	20217.55
408.92	19517.73
409.11	19016.85
409.30	18422.36
409.49	17114.00
409.68	16051.39
409.87	15524.77
410.07	16542.91
410.26	17902.76
410.45	19021.53
410.64	19557.52
410.83	19847.74
411.02	20545.22
411.21	21172.49
411.40	20915.03
411.59	20889.28
411.78	20819.07
411.98	20968.86
412.17	20996.95
412.36	20599.05
412.55	20697.36
412.74	20257.34
412.93	19796.25
413.12	20095.84
413.31	21626.55
413.50	21745.92
413.69	22670.43
413.88	21694.43
414.07	20732.47
414.26	21490.80
414.45	22017.42
414.64	22001.04
414.83	22445.74
415.02	21603.14
415.22	21411.22
415.41	22424.67
415.60	22838.95
415.79	23604.30
415.98	24163.69
416.17	24472.64
416.36	23608.98
416.55	23424.08
416.74	22522.98
416.93	22085.30
417.12	21532.93
417.31	22398.93
417.50	22305.31
417.69	23344.50
417.88	23091.73
418.07	23030.87
418.26	22848.31
418.45	22668.09
418.64	23377.27
418.83	24453.92
419.02	24039.64
419.21	23798.57
419.39	23124.49
419.58	21685.06
419.77	21715.49
419.96	22998.10
420.15	23786.86
420.34	24648.18
420.53	25570.35
420.72	26033.78
420.91	25912.07
421.10	25364.39
421.29	25230.98
421.48	24556.90
421.67	25383.11
421.86	25144.38
422.05	23220.45
422.24	21018.01
422.43	20570.97
422.61	22733.62
422.80	24720.74
422.99	24648.18
423.18	23447.49
423.37	23365.57
423.56	23101.09
423.75	23800.91
423.94	24360.30
424.13	22960.66
424.32	23206.41
424.50	23227.48
424.69	22867.03
424.88	23023.85
425.07	22761.71
425.26	23005.13
425.45	22766.39
425.64	22125.08
425.83	22071.25
426.01	23943.68
426.20	23962.40
426.39	23908.57
426.58	22003.38
426.77	20819.07
426.96	19854.76
427.15	20580.33
427.33	22169.55
427.52	23117.47
427.71	23391.31
427.90	22869.37
428.09	22789.80
428.28	22328.71
428.46	21380.79
428.65	21181.85
428.84	21500.16
429.03	21951.88
429.22	20929.07
429.40	19777.53
429.59	18228.09
429.78	16025.65
429.97	16027.99
430.16	16210.55
430.34	16367.37
430.53	16105.23
430.72	16472.69
430.91	18251.50
431.10	21425.26
431.28	25408.86
431.47	27461.51
431.66	27655.77
431.85	25355.02
432.03	22843.63
432.22	21898.05
432.41	23096.41
432.60	25682.70
432.79	26544.02
432.97	26895.10
433.16	26668.06
433.35	24142.63
433.54	21937.84
433.72	20343.94
433.91	21083.55
434.10	23461.53
434.28	25127.99
434.47	26431.67
434.66	26139.10
434.85	25223.95
435.03	25181.82
435.22	26024.42
435.41	27695.56
435.59	27543.42
435.78	27901.53
435.97	28907.96
436.16	28690.29
436.34	28683.27
436.53	27508.32
436.72	27960.04
436.90	26075.91
437.09	26340.39
437.28	25954.20
437.46	26668.06
437.65	26871.69
437.84	25006.28
438.02	22792.14
438.21	22647.02
438.40	23686.22
438.58	26080.59
438.77	26654.02
438.96	26789.77
439.14	28205.80
439.33	28608.37
439.52	28999.24
439.70	28697.31
439.89	28116.86
440.08	26871.69
440.26	27147.87
440.45	27899.19
440.63	29984.60
440.82	30986.35
441.01	30848.26
441.19	30834.22
441.38	30960.61
441.57	32084.06
441.75	32624.73
441.94	32481.95
442.12	32428.12
442.31	33226.24
442.50	33071.77
442.68	32449.19
442.87	32390.67
443.05	31960.02
443.24	31978.74
443.43	32826.01
443.61	33659.24
443.80	33558.60
443.98	31892.14
444.17	31725.96
444.35	33905.00
444.54	34384.81
444.73	33720.10
444.91	32191.73
445.10	31587.87
445.28	29879.28
445.47	29486.07
445.65	29450.96
445.84	30644.63
446.02	31503.61
446.21	32109.81
446.39	32077.04
446.58	32741.75
446.77	33006.23
446.95	33453.28
447.14	34457.37
447.32	35044.84
447.51	34117.99
447.69	32491.32
447.88	32283.01
448.06	32690.26
448.25	33610.09
448.43	33921.38
448.62	33085.81
448.80	32601.32
448.99	32790.91
449.17	33418.17
449.36	33385.40
449.54	34955.90
449.73	35321.02
449.91	35517.63
450.10	36524.06
450.28	36673.85
450.46	36374.27
450.65	36954.72
450.83	36643.43
451.02	35709.55
451.20	35711.89
451.39	35297.62
451.57	35316.34
451.76	35431.03
451.94	34972.28
452.13	34218.63
452.31	32940.70
452.49	31555.10
452.68	31838.31
452.86	31683.83
453.05	32233.86
453.23	33642.86
453.42	33722.44
453.60	34625.89
453.78	34740.57
453.97	34923.13
454.15	34869.30
454.34	34499.50
454.52	34398.85
454.70	33504.77
454.89	33556.26
455.07	34094.58
455.26	34398.85
455.44	35660.40
455.62	36261.92
455.81	36837.69
455.99	36346.18
456.17	35854.67
456.36	35819.56
456.54	36989.83
456.73	36971.10
456.91	37326.86
457.09	37572.62
457.28	38007.96
457.46	36863.44
457.64	36547.47
457.83	35838.28
458.01	34270.12
458.19	35784.45
458.38	35681.47
458.56	36971.10
458.74	36734.71
458.93	35957.65
459.11	36158.94
459.29	35817.22
459.48	36165.96
459.66	35592.53
459.84	36044.25
460.03	36980.46
460.21	36744.07
460.39	37504.74
460.57	37467.30
460.76	38043.07
460.94	37888.59
461.12	37317.50
461.31	37490.70
461.49	37624.11
461.67	37694.33
461.85	38911.41
462.04	38218.61
462.22	38955.88
462.40	38225.63
462.59	38405.85
462.77	38527.56
462.95	38274.78
463.13	38059.45
463.32	37752.84
463.50	37394.74
463.68	37507.08
463.86	37589.00
464.05	37067.06
464.23	36306.39
464.41	36135.53
464.59	35342.09
464.78	37373.67
464.96	36835.35
465.14	36510.02
465.32	37654.54
465.50	38550.96
465.69	38780.34
465.87	37904.98
466.05	37020.25
466.23	35248.47
466.41	34773.34
466.60	35491.88
466.78	35325.71
466.96	36521.72
467.14	36753.43
467.32	37130.26
467.51	37521.13
467.69	35959.99
467.87	36566.19
468.05	37432.19
468.23	37038.98
468.41	37069.40
468.60	37167.71
468.78	37811.35
468.96	36781.52
469.14	37773.91
469.32	37638.15
469.50	35922.54
469.69	36727.69
469.87	36175.32
470.05	35730.62
470.23	35669.76
470.41	36088.72
470.59	36282.98
470.77	36629.38
470.95	37699.01
471.14	37879.23
471.32	37591.34
471.50	40163.59
471.68	39924.86
471.86	39945.92
472.04	40416.37
472.22	40589.57
472.40	38787.36
472.58	38263.08
472.77	37816.04
472.95	38501.81
473.13	39405.26
473.31	38665.65
473.49	39063.54
473.67	39501.22
473.85	39894.43
474.03	40662.13
474.21	40624.68
474.39	41095.13
474.57	41310.46
474.75	41680.26
474.93	41397.06
475.12	39683.78
475.30	40112.10
475.48	40105.08
475.66	40617.66
475.84	40484.25
476.02	39807.83
476.20	39468.45
476.38	40069.97
476.56	41153.64
476.74	42026.66
476.92	42113.26
477.10	42962.87
477.28	43838.23
477.46	43875.68
477.64	44362.51
477.82	44259.53
478.00	44332.09
478.18	43922.49
478.36	43838.23
478.54	43456.73
478.72	43746.95
478.90	44905.52
479.08	46213.88
479.26	46621.13
479.44	46265.37
479.62	46321.54
479.80	46237.28
479.98	46239.62
480.16	46555.60
480.34	46036.00
480.52	46829.44
480.70	46768.58
480.88	46710.07
481.06	47552.66
481.24	47878.00
481.41	48928.90
481.59	49169.97
481.77	49434.45
481.95	48521.65
482.13	48315.68
482.31	48224.40
482.49	49027.20
482.67	48931.24
482.85	49219.13
483.03	49610.00
483.21	49993.84
483.39	49890.86
483.57	49223.81
483.74	49195.72
483.92	49263.60
484.10	49319.77
484.28	50272.37
484.46	50637.49
484.64	50986.23
484.82	50190.45
485.00	49731.70
485.18	49097.42
485.35	47955.24
485.53	44879.77
485.71	40954.69
485.89	40168.27
486.07	42803.72
486.25	45621.72
486.43	47964.60
486.61	48725.27
486.78	48949.96
486.96	48619.95
487.14	50344.92
487.32	51040.06
487.50	51976.28
487.68	53024.84
487.85	53432.09
488.03	53104.41
488.21	52933.56
488.39	52247.78
488.57	51819.46
488.75	51180.49
488.92	52119.05
489.10	54328.52
489.28	55552.62
489.46	56081.58
489.64	55707.09
489.81	56130.73
489.99	55664.96
490.17	55824.12
490.35	56048.81
490.53	55477.72
490.70	55269.41
490.88	55079.83
491.06	56004.34
491.24	56088.60
491.41	55323.24
491.59	53659.12
491.77	52917.17
491.95	53909.56
492.13	55051.74
492.30	56034.77
492.48	56633.94
492.66	57322.06
492.84	57275.25
493.01	56748.63
493.19	56655.01
493.37	56133.07
493.54	56034.77
493.72	56491.17
493.90	57539.73
494.08	58138.91
494.25	58445.52
494.43	58532.12
494.61	58815.32
494.79	58974.48
494.96	58920.65
495.14	58251.25
495.32	57481.22
495.49	56954.60
495.67	57801.87
495.85	58946.39
496.02	59510.46
496.20	59302.15
496.38	58773.19
496.55	58487.65
496.73	59112.57
496.91	59227.26
497.09	59889.63
497.26	59889.63
497.44	59281.09
497.62	58922.99
497.79	58101.46
497.97	56875.02
498.14	57293.97
498.32	58347.21
498.50	59079.80
498.67	59875.58
498.85	59327.90
499.03	59681.32
499.20	59927.08
499.38	59728.13
499.56	59714.09
499.73	59395.77
499.91	59011.93
500.08	58520.41
500.26	57923.58
500.44	58237.21
500.61	58710.00
500.79	58644.46
500.97	58293.38
501.14	58113.16
501.32	58066.35
501.49	58026.56
501.67	58225.51
501.84	58614.04
502.02	58913.62
502.20	59143.00
502.37	59559.61
502.55	59208.53
502.72	59854.52
502.90	60193.90
503.07	60086.23
503.25	59817.07
503.43	58941.71
503.60	58401.05
503.78	57682.50
503.95	58108.48
504.13	59386.41
504.30	60142.41
504.48	60107.30
504.65	59730.47
504.83	59732.81
505.01	60346.03
505.18	60474.76
505.36	60994.36
505.53	61106.71
505.71	61474.17
505.88	61343.10
506.06	60757.97
506.23	60479.44
506.41	60126.02
506.58	60392.84
506.76	60324.97
506.93	60282.84
507.11	60048.78
507.28	60133.04
507.46	59788.98
507.63	59238.96
507.81	59051.72
507.98	59423.86
508.16	59957.50
508.33	60217.30
508.50	60722.86
508.68	61106.71
508.85	61450.77
509.03	61315.01
509.20	61261.18
509.38	60610.51
509.55	59845.16
509.73	60016.02
509.90	60580.09
510.08	60860.95
510.25	60610.51
510.42	60514.55
510.60	60313.26
510.77	60444.33
510.95	61254.16
511.12	61340.76
511.30	61719.93
511.47	61764.40
511.64	61691.84
511.82	61607.58
511.99	60509.87
512.17	60280.50
512.34	59826.43
512.51	60133.04
512.69	60308.58
512.86	60500.51
513.04	60561.36
513.21	60732.22
513.38	60444.33
513.56	60013.68
513.73	59384.07
513.90	59671.96
514.08	59709.41
514.25	59824.09
514.43	60236.03
514.60	60285.18
514.77	60484.12
514.95	60502.85
515.12	60308.58
515.29	60622.22
515.47	61195.65
515.64	61106.71
515.81	60949.89
515.99	60390.50
516.16	58993.20
516.33	56809.48
516.51	55679.00
516.68	54974.50
516.85	54522.78
517.03	54658.53
517.20	57312.70
517.37	59587.70
517.54	60273.48
517.72	60055.81
517.89	57715.27
518.06	55278.77
518.24	55870.93
518.41	57752.72
518.58	59154.70
518.75	59292.79
518.93	59515.14
519.10	59164.06
519.27	59657.91
519.45	59891.97
519.62	60582.43
519.79	60945.21
519.96	60767.33
520.14	60257.09
520.31	59664.94
520.48	59458.97
520.65	60046.44
520.83	60832.86
521.00	61048.19
521.17	60800.10
521.34	60151.77
521.52	60659.66
521.69	61099.68
521.86	61565.45
522.03	61195.65
522.20	59955.16
522.38	59040.01
522.55	59260.02
522.72	59538.55
522.89	59868.56
523.07	60257.09
523.24	60264.11
523.41	61181.60
523.58	61359.48
523.75	61703.54
523.92	61661.41
524.10	61654.39
524.27	61544.39
524.44	61476.51
524.61	61296.29
524.78	61279.91
524.96	60835.20
525.13	61123.09
525.30	61141.81
525.47	61712.91
525.64	61460.13
525.81	60797.76
525.98	59653.23
526.16	58232.53
526.33	57317.38
526.50	57258.87
526.67	57195.67
526.84	57584.20
527.01	58649.14
527.18	59220.23
527.36	59962.18
527.53	60795.42
527.70	61057.56
527.87	60465.40
528.04	60172.83
528.21	60484.12
528.38	61176.92
528.55	61769.08
528.72	61755.03
528.89	62204.42
529.07	61790.14
529.24	61176.92
529.41	60516.89
529.58	60198.58
529.75	60130.70
529.92	60727.54
530.09	61048.19
530.26	61506.94
530.43	61635.67
530.60	61792.48
530.77	61956.32
530.94	62103.77
531.11	61572.47
531.28	61270.54
531.46	61130.11
531.63	61165.22
531.80	61134.79
531.97	60905.42
532.14	60048.78
532.31	59077.46
532.48	58326.15
532.65	58571.91
532.82	59302.15
532.99	60348.37
533.16	60662.00
533.33	61186.28
533.50	60917.12
533.67	60418.59
533.84	59931.76
534.01	60065.17
534.18	60395.18
534.35	60371.78
534.52	60161.13
534.69	60502.85
534.86	60891.38
535.03	61197.99
535.20	61336.08
535.37	62017.17
535.54	61984.41
535.71	61549.07
535.88	61275.22
536.05	60645.62
536.22	60329.65
536.38	59978.57
536.55	59739.83
536.72	59145.34
536.89	58990.86
537.06	59924.74
537.23	60680.73
537.40	61003.72
537.57	60975.64
537.74	60704.13
537.91	60596.47
538.08	60544.98
538.25	60512.21
538.42	60743.92
538.59	60760.31
538.75	60032.40
538.92	59847.50
539.09	59796.01
539.26	59487.06
539.43	59370.03
539.60	59451.95
539.77	59522.16
539.94	59576.00
540.11	58780.21
540.28	58265.30
540.44	58251.25
540.61	58248.91
540.78	58726.38
540.95	59245.98
541.12	59526.84
541.29	59749.20
541.46	60186.88
541.62	59901.33
541.79	60016.02
541.96	59402.80
542.13	59311.52
542.30	59426.20
542.47	59791.33
542.63	59543.23
542.80	59348.96
542.97	59547.91
543.14	59533.87
543.31	59435.56
543.48	59800.69
543.64	60554.34
543.81	61001.38
543.98	60676.05
544.15	60128.36
544.32	59393.43
544.48	59515.14
544.65	59875.58
544.82	60367.10
544.99	59896.65
545.16	59627.49
545.32	59440.24
545.49	60100.28
545.66	60463.06
545.83	60111.98
546.00	59880.27
546.16	59583.02
546.33	59583.02
546.50	59552.59
546.67	60062.83
546.83	59475.35
547.00	59576.00
547.17	58866.81
547.34	58354.24
547.50	58340.19
547.67	58866.81
547.84	58768.51
548.00	59444.93
548.17	59767.92
548.34	59641.53
548.51	59482.37
548.67	59496.42
548.84	59391.09
549.01	59597.06
549.18	59355.99
549.34	59381.73
549.51	59372.37
549.68	59522.16
549.84	59271.73
550.01	58974.48
550.18	59011.93
550.34	59082.14
550.51	59093.85
550.68	59187.47
550.84	58660.85
551.01	58775.53
551.18	58686.59
551.34	58754.47
551.51	59278.75
551.68	59456.63
551.84	59526.84
552.01	59348.96
552.18	59250.66
552.34	58494.67
552.51	58010.18
552.68	57939.96
552.84	58330.83
553.01	58805.96
553.18	58562.54
553.34	58908.94
553.51	58801.28
553.67	59028.31
553.84	59215.55
554.01	59386.41
554.17	58946.39
554.34	58859.79
554.51	58972.14
554.67	59498.76
554.84	59250.66
555.00	58796.60
555.17	58681.91
555.33	58738.08
555.50	58679.57
555.67	58592.97
555.83	58450.20
556.00	58035.92
556.16	58120.18
556.33	57696.55
556.50	57759.74
556.66	57949.32
556.83	57577.18
556.99	57579.52
557.16	57612.29
557.32	58003.16
557.49	58248.91
557.65	58056.99
557.82	58143.59
557.98	57942.30
558.15	57359.51
558.32	56631.60
558.48	55891.99
558.65	56121.37
558.81	56392.87
558.98	56779.06
559.14	57003.75
559.31	56853.95
559.47	56875.02
559.64	56655.01
559.80	56385.85
559.97	56512.23
560.13	56931.19
560.30	57689.52
560.46	58183.38
560.63	58342.53
560.79	58286.36
560.96	57965.71
561.12	56992.04
561.29	56217.33
561.45	56226.69
561.61	56776.72
561.78	57003.75
561.94	57099.71
562.11	56994.39
562.27	56882.04
562.44	56956.94
562.60	57258.87
562.77	57640.37
562.93	57219.08
563.10	57403.98
563.26	56753.31
563.42	56896.08
563.59	56427.98
563.75	56657.35
563.92	56535.64
564.08	56493.51
564.24	56701.82
564.41	56956.94
564.57	57034.17
564.74	56584.79
564.90	56713.52
565.07	56549.68
565.23	56119.02
565.39	55587.72
565.56	55299.84
565.72	55093.87
565.88	55494.10
566.05	55606.45
566.21	56025.40
566.38	55751.56
566.54	55884.97
566.70	56409.25
566.87	56718.20
567.03	56814.16
567.19	57006.09
567.36	56484.15
567.52	56212.65
567.68	55913.06
567.85	55468.36
568.01	55178.13
568.17	54597.68
568.34	54836.41
568.50	54915.99
568.66	54838.75
568.83	55112.59
568.99	55224.94
569.15	55679.00
569.32	55313.88
569.48	55004.93
569.64	55213.24
569.81	54658.53
569.97	54485.33
570.13	54464.27
570.30	53991.48
570.46	53698.91
570.62	52942.92
570.78	53193.36
570.95	53392.30
571.11	54092.12
571.27	54356.60
571.43	54482.99
571.60	54768.54
571.76	54876.20
571.92	55189.83
572.09	55077.49
572.25	55145.36
572.41	55412.18
572.57	54946.42
572.74	55178.13
572.90	54808.32
573.06	54805.98
573.22	54798.96
573.38	54703.00
573.55	54906.63
573.71	55035.36
573.87	54539.16
574.03	54288.73
574.20	54642.15
574.36	54401.07
574.52	54185.74
574.68	53787.85
574.84	53682.53
575.01	53247.19
575.17	52942.92
575.33	53476.56
575.49	53432.09
575.65	53586.57
575.82	53497.62
575.98	53333.79
576.14	53502.31
576.30	53804.24
576.46	53710.61
576.62	53600.61
576.79	53712.95
576.95	53411.02
577.11	53277.61
577.27	53209.74
577.43	53621.67
577.59	52959.30
577.75	52711.20
577.92	51934.15
578.08	52076.92
578.24	51908.40
578.40	52200.97
578.56	52509.92
578.72	52554.39
578.88	52942.92
579.04	52961.64
579.21	53139.52
579.37	53111.44
579.53	53326.77
579.69	53200.38
579.85	53008.45
580.01	53354.85
580.17	52512.26
580.33	52360.12
580.49	52418.64
580.65	53111.44
580.82	53085.69
580.98	52842.27
581.14	52949.94
581.30	52875.04
581.46	52961.64
581.62	53013.13
581.78	53258.89
581.94	53448.47
582.10	53125.48
582.26	53469.54
582.42	53034.20
582.58	52989.73
582.74	53268.25
582.90	53066.97
583.06	53097.39
583.22	52802.49
583.38	53078.67
583.54	52912.49
583.70	52828.23
583.86	52610.56
584.02	52598.86
584.18	52772.06
584.34	52580.13
584.50	52587.16
584.66	52437.36
584.82	52044.15
584.98	51908.40
585.14	51629.88
585.30	51019.00
585.46	50719.41
585.62	50426.84
585.78	50843.46
585.94	51145.39
586.10	51093.89
586.26	51379.44
586.42	51819.46
586.58	51980.96
586.74	51779.67
586.90	51660.30
587.06	51882.66
587.22	51529.23
587.38	51400.50
587.54	51229.65
587.70	50728.77
587.86	50373.01
588.02	50157.68
588.18	50314.50
588.34	48568.46
588.49	46707.73
588.65	44790.83
588.81	44257.19
588.97	45057.65
589.13	44589.55
589.29	44339.11
589.45	45364.26
589.61	46387.08
589.77	47856.93
589.93	48767.40
590.08	49350.20
590.24	49565.52
590.40	49488.29
590.56	49855.75
590.72	49485.95
590.88	48760.38
591.04	48402.28
591.20	48917.20
591.35	49076.35
591.51	48603.56
591.67	48449.09
591.83	48851.66
591.99	49020.18
592.15	49048.27
592.31	49050.61
592.46	49048.27
592.62	48704.21
592.78	48645.69
592.94	48676.12
593.10	48563.78
593.26	48727.61
593.41	49195.72
593.57	49258.91
593.73	48638.67
593.89	48172.91
594.05	47496.49
594.20	47351.38
594.36	47388.83
594.52	46529.85
594.68	47023.70
594.84	47288.18
594.99	47737.57
595.15	47550.32
595.31	47969.28
595.47	47952.90
595.62	48037.16
595.78	48285.25
595.94	48465.47
596.10	48619.95
596.25	48622.29
596.41	47723.52
596.57	47821.83
596.73	48088.65
596.88	47674.37
597.04	47711.82
597.20	47367.76
597.36	47107.96
597.51	47512.88
597.67	48006.73
597.83	47491.81
597.99	47337.33
598.14	47089.24
598.30	46426.87
598.46	46595.38
598.61	46902.00
598.77	47058.81
598.93	47079.88
599.09	47292.86
599.24	47999.71
599.40	47040.09
599.56	46995.62
599.71	47082.22
599.87	47084.56
600.03	46988.60
600.18	46803.69
600.34	46036.00
600.50	46340.27
600.65	46344.95
600.81	46534.53
600.97	46246.65
601.12	46394.10
601.28	45916.63
601.44	45553.85
601.59	45567.89
601.75	45125.53
601.91	45294.05
602.06	45542.14
602.22	45488.31
602.37	45528.10
602.53	45876.84
602.69	46827.10
602.84	46302.82
603.00	46461.97
603.16	46569.64
603.31	46616.45
603.47	46787.31
603.62	46284.09
603.78	46211.54
603.94	46103.87
604.09	46321.54
604.25	45811.31
604.40	45708.32
604.56	46197.49
604.71	46263.03
604.87	45785.56
605.03	45612.36
605.18	45331.50
605.34	45319.79
605.49	45268.30
605.65	45600.66
605.80	45404.05
605.96	45052.97
606.12	44973.39
606.27	45006.16
606.43	44774.45
606.58	45057.65
606.74	45186.38
606.89	45333.84
607.05	45710.66
607.20	45272.98
607.36	44938.29
607.51	44158.89
607.67	44437.41
607.82	43992.71
607.98	44388.26
608.13	43936.54
608.29	43449.70
608.44	44149.53
608.60	44006.75
608.75	43608.86
608.91	44133.14
609.06	43545.67
609.22	43875.68
609.37	43646.31
609.53	43629.93
609.68	43234.38
609.84	42710.10
609.99	42124.96
610.15	42384.76
610.30	42712.44
610.46	43065.86
610.61	43222.67
610.76	43580.78
610.92	43917.81
611.07	43786.74
611.23	43674.40
611.38	43482.47
611.54	43576.09
611.69	42197.52
611.84	42087.51
612.00	41642.81
612.15	41628.77
612.31	42190.50
612.46	42103.90
612.62	42131.98
612.77	42422.21
612.92	42506.47
613.08	41645.15
613.23	40809.58
613.39	40332.11
613.54	39765.70
613.69	40259.55
613.85	40236.15
614.00	40692.55
614.15	41347.90
614.31	41251.94
614.46	41535.15
614.62	41345.56
614.77	41282.37
614.92	41174.70
615.08	41277.69
615.23	40889.16
615.38	40533.40
615.54	39604.20
615.69	39173.55
615.84	38326.27
616.00	37933.06
616.15	38122.65
616.30	38377.76
616.46	38768.63
616.61	38607.14
616.76	39182.91
616.92	39063.54
617.07	39283.55
617.22	39758.68
617.37	39732.93
617.53	39700.17
617.68	40037.20
617.83	40194.02
617.99	39990.39
618.14	39587.82
618.29	39770.38
618.45	39510.58
618.60	38820.13
618.75	38375.42
618.90	38501.81
619.06	38979.28
619.21	39276.53
619.36	39440.37
619.51	39559.73
619.67	38990.98
619.82	39356.11
619.97	39512.92
620.12	39168.87
620.28	39220.36
620.43	39185.25
620.58	39407.60
620.73	39269.51
620.89	38747.57
621.04	38490.11
621.19	38237.33
621.34	38307.55
621.49	37509.43
621.65	37553.90
621.80	37867.53
621.95	37663.90
622.10	38181.16
622.25	37675.60
622.41	37612.41
622.56	37024.93
622.71	36811.95
622.86	36842.37
623.01	37298.78
623.16	37207.50
623.32	36842.37
623.47	36898.55
623.62	36891.52
623.77	36648.11
623.92	36517.04
624.07	35906.16
624.23	35981.06
624.38	35798.49
624.53	36217.45
624.68	35997.44
624.83	35793.81
624.98	35730.62
625.13	35082.29
625.29	35026.12
625.44	35173.57
625.59	35182.93
625.74	35187.61
625.89	35576.14
626.04	35421.67
626.19	35253.15
626.34	35756.36
626.49	35592.53
626.65	35461.46
626.80	35292.94
626.95	35431.03
627.10	35358.47
627.25	34515.88
627.40	33268.37
627.55	32849.42
627.70	32229.18
627.85	32807.29
628.00	33303.48
628.15	33804.36
628.30	34181.18
628.45	34003.30
628.60	34024.37
628.76	33860.53
628.91	33991.60
629.06	33724.78
629.21	33343.27
629.36	33160.71
629.51	32914.95
629.66	32924.32
629.81	32385.99
629.96	32432.80
630.11	32889.21
630.26	33254.33
630.41	33645.20
630.56	32910.27
630.71	33488.38
630.86	33457.96
631.01	32542.81
631.16	32488.98
631.31	31793.84
631.46	31604.25
631.61	32315.78
631.76	32343.86
631.91	32130.87
632.06	32582.60
632.21	33282.42
632.36	33071.77
632.51	33141.99
632.66	33170.07
632.81	33172.41
632.96	32821.33
633.10	32641.11
633.25	32259.60
633.40	31903.84
633.55	32535.79
633.70	32205.77
633.85	32238.54
634.00	32114.49
634.15	32119.17
634.30	32187.05
634.45	31990.44
634.60	32058.32
634.75	32467.91
634.90	32395.35
635.05	31819.58
635.19	32247.90
635.34	32414.08
635.49	31613.62
635.64	31606.59
635.79	31566.81
635.94	31213.38
636.09	31419.35
636.24	31487.23
636.39	31466.16
636.53	31805.54
636.68	31896.82
636.83	31875.76
636.98	31866.39
637.13	31915.54
637.28	31861.71
637.43	31810.22
637.57	31929.59
637.72	31115.08
637.87	31473.18
638.02	31592.55
638.17	31627.66
638.32	31707.24
638.46	31550.42
638.61	31374.88
638.76	30843.58
638.91	30464.41
639.06	30518.25
639.20	30632.93
639.35	30614.21
639.50	30000.99
639.65	30199.93
639.80	30120.35
639.94	30347.39
640.09	30242.06
640.24	30183.55
640.39	30106.31
640.54	29902.68
640.68	29769.27
640.83	29729.48
640.98	29472.03
641.13	29226.27
641.27	29785.66
641.42	29504.79
641.57	29120.95
641.72	29266.06
641.86	29149.03
642.01	29352.66
642.16	29738.85
642.31	29912.05
642.45	30307.60
642.60	29827.79
642.75	29696.72
642.90	29244.99
643.04	28950.09
643.19	28802.63
643.34	28786.25
643.48	28711.35
643.63	28524.11
643.78	29015.62
643.93	29055.41
644.07	29720.12
644.22	29500.11
644.37	29315.21
644.51	29053.07
644.66	29085.84
644.81	28353.25
644.95	28510.07
645.10	28261.97
645.25	27964.72
645.39	28353.25
645.54	28208.14
645.69	27981.10
645.83	27407.67
645.98	27456.82
646.13	27513.00
646.27	27213.41
646.42	27489.59
646.57	27569.17
646.71	27627.68
646.86	27445.12
647.00	27056.59
647.15	27040.21
647.30	26902.12
647.44	26883.39
647.59	27227.45
647.74	26705.51
647.88	26263.15
648.03	26490.18
648.17	26824.88
648.32	26869.35
648.47	26883.39
648.61	26843.60
648.76	26600.19
648.90	25893.35
649.05	25462.69
649.20	24994.58
649.34	24673.93
649.49	25020.33
649.63	25263.74
649.78	25713.13
649.92	26401.24
650.07	26639.98
650.21	26511.25
650.36	26698.49
650.51	26656.36
650.65	26867.01
650.80	27019.14
650.94	26637.64
651.09	26122.72
651.23	25411.20
651.38	25560.99
651.52	25160.76
651.67	25270.76
651.81	25907.39
651.96	25549.29
652.10	25535.24
652.25	25902.71
652.39	26192.94
652.54	26071.23
652.68	26115.70
652.83	25612.48
652.97	25841.85
653.12	25523.54
653.26	25640.57
653.41	25783.34
653.55	26031.44
653.70	25818.45
653.84	25333.96
653.99	25544.61
654.13	25261.40
654.27	24713.72
654.42	24678.61
654.56	24383.70
654.71	24123.90
654.85	24257.31
655.00	24013.90
655.14	24046.66
655.29	23503.66
655.43	23213.43
655.57	21893.37
655.72	20673.95
655.86	18750.03
656.01	17865.31
656.15	18597.90
656.30	19384.32
656.44	20350.96
656.58	21280.15
656.73	22047.85
656.87	22305.31
657.01	22911.50
657.16	23026.19
657.30	23435.78
657.45	23690.90
657.59	23941.34
657.73	23840.70
657.88	24182.42
658.02	24166.03
658.16	24077.09
658.31	24173.05
658.45	24009.22
658.60	23889.85
658.74	23821.97
658.88	23520.04
659.03	23154.92
659.17	23089.38
659.31	23290.67
659.46	23300.03
659.60	23538.77
659.74	23754.10
659.89	23496.64
660.03	23873.46
660.17	23889.85
660.32	23665.16
660.46	23456.85
660.60	23522.38
660.74	23562.17
660.89	23129.17
661.03	23250.88
661.17	23318.76
661.32	23096.41
661.46	23515.36
661.60	23206.41
661.74	23454.51
661.89	23281.31
662.03	23597.28
662.17	23330.46
662.31	23105.77
662.46	22991.08
662.60	23000.44
662.74	22632.98
662.88	22796.82
663.03	22654.05
663.17	22349.78
663.31	22143.81
663.45	22232.75
663.60	22382.54
663.74	22398.93
663.88	21968.27
664.02	22024.44
664.17	22010.40
664.31	21954.22
664.45	22340.41
664.59	22415.31
664.73	22274.88
664.88	22551.06
665.02	21795.07
665.16	22431.69
665.30	22298.28
665.44	22015.08
665.59	21598.46
665.73	21373.77
665.87	21359.73
666.01	21394.84
666.15	21338.66
666.29	21277.81
666.44	21303.56
666.58	21111.63
666.72	21188.87
666.86	21579.74
667.00	21301.22
667.14	21238.02
667.28	20987.58
667.43	20886.94
667.57	20893.96
667.71	20952.48
667.85	21034.39
667.99	20727.78
668.13	20716.08
668.27	20652.89
668.41	20947.79
668.56	20891.62
668.70	20957.16
668.84	20861.19
668.98	20666.93
669.12	20629.48
669.26	20706.72
669.40	20374.36
669.54	20191.80
669.68	20175.42
669.82	20067.75
669.96	19873.49
670.10	20102.86
670.25	20056.05
670.39	19749.44
670.53	20044.35
670.67	19719.01
670.81	19627.73
670.95	19501.34
671.09	19557.52
671.23	19351.55
671.37	19002.81
671.51	19323.46
671.65	19271.97
671.79	19229.84
671.93	19288.35
672.07	19726.04
672.21	19335.17
672.35	19152.60
672.49	18930.25
672.63	19227.50
672.77	18789.82
672.91	19260.27
673.05	18801.52
673.19	19007.49
673.33	18778.12
673.47	18817.91
673.61	18817.91
673.75	18609.60
673.89	18733.65
674.03	18579.17
674.17	18438.74
674.31	18544.06
674.45	18597.90
674.59	18120.43
674.73	18279.58
674.87	17998.72
675.01	17708.49
675.15	17851.27
675.29	17972.97
675.43	17778.71
675.56	17942.55
675.70	17980.00
675.84	17975.31
675.98	17315.28
676.12	17757.64
676.26	17888.71
676.40	17542.32
676.54	17554.02
676.68	17228.68
676.82	16791.00
676.96	17483.80
677.10	17521.25
677.23	17476.78
677.37	17216.98
677.51	17289.54
677.65	17181.87
677.79	16783.98
677.93	16767.60
678.07	16732.49
678.21	16528.86
678.34	16322.90
678.48	16535.88
678.62	16404.81
678.76	16191.83
678.90	16435.24
679.04	16252.68
679.18	16397.79
679.31	16107.57
679.45	16086.50
679.59	16203.53
679.73	15861.81
679.87	16081.82
680.00	16088.84
680.14	15836.06
680.28	15630.10
680.42	15421.79
680.56	15463.92
680.70	15360.94
680.83	15531.80
680.97	15300.08
681.11	15412.43
681.25	15421.79
681.39	15414.77
681.52	15412.43
681.66	15103.48
681.80	15264.97
681.94	14984.11
682.07	15260.29
682.21	15234.55
682.35	14813.25
682.49	14953.68
682.62	15016.88
682.76	14483.24
682.90	14438.76
683.04	14298.33
683.17	14485.58
683.31	14508.98
683.45	14324.08
683.59	14155.56
683.72	13942.57
683.86	13699.16
684.00	13724.90
684.13	13912.14
684.27	13858.31
684.41	13947.25
684.55	13804.48
684.68	13888.74
684.82	13696.82
684.96	13593.83
685.09	13706.18
685.23	13240.41
685.37	13420.63
685.50	13186.58
685.64	13177.22
685.78	13121.04
685.91	12959.55
686.05	13050.83
686.19	12592.08
686.32	11826.73
686.46	10485.60
686.60	9280.22
686.73	8664.66
686.87	8133.36
687.01	8084.21
687.14	8212.94
687.28	8390.82
687.42	8816.80
687.55	9137.45
687.69	9867.70
687.82	10150.90
687.96	10668.16
688.10	10794.55
688.23	10586.24
688.37	10462.19
688.50	10115.80
688.64	10235.16
688.78	9994.09
688.91	9930.89
689.05	9839.61
689.18	9785.78
689.32	9879.40
689.46	9942.60
689.59	9853.66
689.73	10078.35
689.86	9844.29
690.00	9921.53
690.13	10202.40
690.27	10005.79
690.41	10239.84
690.54	9935.57
690.68	10307.72
690.81	10246.87
690.95	10195.37
691.08	10115.80
691.22	10331.12
691.35	9928.55
691.49	10420.06
691.62	10076.01
691.76	10431.77
691.89	10314.74
692.03	10134.52
692.16	10221.12
692.30	10171.97
692.43	9785.78
692.57	9877.06
692.70	9689.82
692.84	9638.33
692.97	9715.56
693.11	9460.45
693.24	9600.88
693.38	9495.55
693.51	9516.62
693.65	9352.78
693.78	9413.63
693.92	9158.52
694.05	9107.02
694.19	9298.95
694.32	8982.98
694.45	9135.11
694.59	9029.79
694.72	8931.48
694.86	9027.45
694.99	9144.47
695.13	8910.42
695.26	8823.82
695.39	8713.81
695.53	8891.70
695.66	8908.08
695.80	8903.40
695.93	8734.88
696.07	8854.25
696.20	8973.61
696.33	9020.42
696.47	8872.97
696.60	9156.18
696.73	9198.31
696.87	9027.45
697.00	9123.41
697.14	9025.11
697.27	8882.33
697.40	8882.33
697.54	8573.38
697.67	8479.76
697.80	8470.40
697.94	8325.29
698.07	8273.79
698.21	8203.58
698.34	8119.32
698.47	8093.57
698.61	8088.89
698.74	8004.63
698.87	8013.99
699.01	8070.17
699.14	8023.36
699.27	7943.78
699.40	7997.61
699.54	7854.84
699.67	7747.17
699.80	7581.00
699.94	7747.17
700.07	7662.91
700.20	7384.39
700.34	7403.11
700.47	7419.50
700.60	7445.24
700.73	7513.12
700.87	7122.25
701.00	7297.79
701.13	7288.43
701.26	7148.00
701.40	6885.86
701.53	6799.26
701.66	7037.99
701.79	7269.70
701.93	6963.09
702.06	7016.93
702.19	7012.24
702.32	6993.52
702.46	7023.95
702.59	6785.21
702.72	6733.72
702.85	6946.71
702.99	6942.03
703.12	6981.82
703.25	6839.05
703.38	6792.23
703.51	6736.06
703.65	6637.76
703.78	6752.45
703.91	6689.25
704.04	6722.02
704.17	6719.68
704.31	6677.55
704.44	6834.36
704.57	6771.17
704.70	6565.20
704.83	6553.50
704.96	6408.39
705.10	6469.24
705.23	6314.77
>>>>>End Processed Spectral Data<<<<<
