SpectraSuite Data File
++++++++++++++++++++++++++++++++++++
Date: Mon Oct 07 14:54:00 GMT-05:00 2013
User: price-jones
Dark Spectrum Present: No
Reference Spectrum Present: No
Number of Sampled Component Spectra: 1
Spectrometers: USB2+H05261
Integration Time (usec): 100000 (USB2+H05261)
Spectra Averaged: 1 (USB2+H05261)
Boxcar Smoothing: 0 (USB2+H05261)
Correct for Electrical Dark: No (USB2+H05261)
Strobe/Lamp Enabled: No (USB2+H05261)
Correct for Detector Non-linearity: No (USB2+H05261)
Correct for Stray Light: No (USB2+H05261)
Number of Pixels in Processed Spectrum: 2048
>>>>>Begin Processed Spectral Data<<<<<
365.73	0.00
365.92	0.00
366.12	0.00
366.32	0.00
366.52	0.00
366.72	0.00
366.91	0.00
367.11	0.00
367.31	0.00
367.51	0.00
367.70	0.00
367.90	0.00
368.10	0.00
368.30	0.00
368.49	0.00
368.69	0.00
368.89	0.00
369.09	0.00
369.28	0.00
369.48	0.00
369.68	0.00
369.87	0.00
370.07	0.00
370.27	0.00
370.47	730.25
370.66	3419.52
370.86	3880.61
371.06	4418.93
371.25	4353.40
371.45	3894.65
371.65	3557.61
371.84	3225.26
372.04	3499.10
372.24	3824.44
372.44	4102.96
372.63	3946.14
372.83	3754.22
373.03	3222.92
373.22	3042.70
373.42	3211.22
373.62	3873.59
373.81	3936.78
374.01	3932.10
374.21	3529.53
374.40	3510.80
374.60	3496.76
374.79	3983.59
374.99	4594.47
375.19	4943.21
375.38	4854.27
375.58	4564.04
375.78	4561.70
375.97	4566.39
376.17	4781.71
376.37	4807.46
376.56	4905.76
376.76	5184.29
376.95	5406.64
377.15	5984.75
377.35	6242.21
377.54	6296.04
377.74	6497.33
377.93	6693.93
378.13	6459.88
378.33	6150.93
378.52	5577.50
378.72	5343.44
378.91	5467.49
379.11	5172.58
379.31	5006.41
379.50	4947.89
379.70	5327.06
379.89	5930.92
380.09	6113.48
380.28	6420.09
380.48	6321.79
380.68	6361.58
380.87	6129.86
381.07	5626.65
381.26	5254.50
381.46	4999.38
381.65	4826.18
381.85	4830.87
382.04	4365.10
382.24	4170.83
382.43	3786.99
382.63	3927.42
382.83	3763.58
383.02	3831.46
383.22	3815.07
383.41	3978.91
383.61	4042.11
383.80	4926.83
384.00	5338.76
384.19	6094.76
384.39	6263.27
384.58	6317.11
384.78	6200.08
384.97	6118.16
385.17	5879.43
385.36	5488.56
385.56	5348.12
385.75	5551.75
385.95	6090.07
386.14	6630.74
386.34	6466.90
386.53	6169.65
386.72	5701.54
386.92	5937.94
387.11	6195.40
387.31	6438.81
387.50	6455.20
387.70	6230.51
387.89	6218.80
388.09	6331.15
388.28	6155.61
388.48	6401.37
388.67	6715.00
388.86	7494.40
389.06	7988.25
389.25	8271.45
389.45	8369.76
389.64	8414.23
389.84	8287.84
390.03	8292.52
390.22	8098.25
390.42	8589.77
390.61	8945.53
390.81	9530.66
391.00	9895.78
391.19	9710.88
391.39	9518.96
391.58	8528.91
391.78	8318.26
391.97	8044.42
392.16	7499.08
392.36	6736.06
392.55	5579.84
392.75	4451.70
392.94	3684.00
393.13	3480.38
393.33	4231.69
393.52	5495.58
393.71	6441.15
393.91	7370.35
394.10	7829.09
394.29	8734.88
394.49	9521.30
394.68	10071.33
394.88	10298.36
395.07	10736.04
395.26	10438.79
395.46	10115.80
395.65	9542.36
395.84	8627.21
396.04	7138.63
396.23	5729.63
396.42	4858.95
396.62	4685.75
396.81	5535.37
397.00	6857.77
397.19	8709.13
397.39	10148.56
397.58	11541.18
397.77	12423.56
397.97	12837.84
398.16	12999.34
398.35	13200.62
398.55	13673.41
398.74	14429.40
398.93	14595.58
399.12	14209.39
399.32	13607.87
399.51	14569.83
399.70	15007.52
399.90	14801.55
400.09	14869.42
400.28	14839.00
400.47	14932.62
400.67	15618.39
400.86	16180.12
401.05	16086.50
401.24	16210.55
401.44	16386.09
401.63	16388.43
401.82	16421.20
402.01	16475.03
402.21	16648.23
402.40	16809.73
402.59	16355.66
402.78	15323.49
402.97	15014.54
403.17	15578.61
403.36	16697.38
403.55	17181.87
403.74	17832.54
403.93	16425.88
404.13	15349.23
404.32	15091.77
404.51	15852.45
404.70	17191.23
404.89	17137.40
405.09	16716.11
405.28	16252.68
405.47	16140.33
405.66	16182.46
405.85	15719.04
406.05	15597.33
406.24	15503.71
406.43	16219.91
406.62	16795.68
406.81	17298.90
407.00	16142.67
407.20	15953.09
407.39	16013.95
407.58	16791.00
407.77	17224.00
407.96	18019.78
408.15	17961.27
408.34	18272.56
408.54	18965.36
408.73	19206.44
408.92	18787.48
409.11	18576.83
409.30	17383.16
409.49	16479.71
409.68	15447.54
409.87	14855.38
410.07	15730.74
410.26	17160.81
410.45	18302.99
410.64	18417.68
410.83	19096.43
411.02	19651.14
411.21	20121.59
411.40	19845.40
411.59	20400.11
411.78	20109.88
411.98	19887.53
412.17	20245.63
412.36	19742.42
412.55	19836.04
412.74	19304.74
412.93	18850.67
413.12	19468.58
413.31	20762.89
413.50	21418.24
413.69	21535.27
413.88	20783.96
414.07	20121.59
414.26	20365.00
414.45	21399.52
414.64	21139.72
414.83	20950.14
415.02	20893.96
415.22	20585.01
415.41	21015.67
415.60	21799.75
415.79	22937.25
415.98	23243.86
416.17	23300.03
416.36	22691.49
416.55	22237.43
416.74	21715.49
416.93	21015.67
417.12	20692.68
417.31	21413.56
417.50	21546.97
417.69	22153.17
417.88	22169.55
418.07	21888.69
418.26	21799.75
418.45	21802.09
418.64	22579.15
418.83	23293.01
419.02	23133.86
419.21	22750.01
419.39	22211.68
419.58	20992.26
419.77	20800.34
419.96	21572.72
420.15	23087.04
420.34	23700.26
420.53	24304.12
420.72	24987.56
420.91	24512.43
421.10	24563.92
421.29	24222.20
421.48	23468.55
421.67	24498.39
421.86	23744.73
422.05	22438.72
422.24	19843.06
422.43	19630.07
422.61	21963.59
422.80	23344.50
422.99	23814.95
423.18	23044.91
423.37	21984.65
423.56	22349.78
423.75	22979.38
423.94	22984.06
424.13	21958.91
424.32	22251.47
424.50	22204.66
424.69	21893.37
424.88	21956.57
425.07	22089.98
425.26	21926.14
425.45	21837.20
425.64	21268.45
425.83	21053.12
426.01	22462.12
426.20	22925.55
426.39	22991.08
426.58	21502.50
426.77	19880.51
426.96	18916.21
427.15	19548.15
427.33	21675.70
427.52	22115.72
427.71	22286.58
427.90	21996.35
428.09	21619.53
428.28	21053.12
428.46	21003.97
428.65	20348.62
428.84	20716.08
429.03	21153.76
429.22	20018.60
429.40	18988.77
429.59	17106.98
429.78	15218.16
429.97	15105.82
430.16	15494.35
430.34	15789.25
430.53	15618.39
430.72	15906.28
430.91	17172.51
431.10	20407.13
431.28	24049.00
431.47	26115.70
431.66	26670.40
431.85	24290.08
432.03	22258.49
432.22	20758.21
432.41	22073.59
432.60	24364.98
432.79	25490.77
432.97	25600.78
433.16	25759.94
433.35	23262.58
433.54	20919.71
433.72	19627.73
433.91	20467.98
434.10	22469.14
434.28	24084.11
434.47	25359.70
434.66	24847.13
434.85	24404.77
435.03	24126.24
435.22	24952.45
435.41	26394.22
435.59	26422.31
435.78	26885.73
435.97	27487.25
436.16	27765.78
436.34	27140.85
436.53	26934.88
436.72	26878.71
436.90	24999.26
437.09	25343.32
437.28	24889.26
437.46	25680.36
437.65	25628.87
437.84	23796.23
438.02	21949.54
438.21	21720.17
438.40	22988.74
438.58	25099.90
438.77	25441.62
438.96	25680.36
439.14	26808.50
439.33	27300.01
439.52	28009.19
439.70	27412.35
439.89	26878.71
440.08	25429.92
440.26	25708.44
440.45	26895.10
440.63	28287.71
440.82	30321.64
441.01	29947.15
441.19	29399.47
441.38	30010.35
441.57	30995.71
441.75	31271.90
441.94	31662.77
442.12	31318.71
442.31	31756.39
442.50	31718.94
442.68	31091.68
442.87	31131.47
443.05	30672.72
443.24	31094.02
443.43	31552.76
443.61	32175.34
443.80	32554.51
443.98	30604.84
444.17	30284.19
444.35	32741.75
444.54	32917.29
444.73	32772.18
444.91	31297.64
445.10	30284.19
445.28	28786.25
445.47	28283.03
445.65	28432.83
445.84	29415.85
446.02	30417.60
446.21	30768.68
446.39	30906.77
446.58	31194.66
446.77	31878.10
446.95	31967.04
447.14	33106.88
447.32	33043.68
447.51	32648.13
447.69	31512.97
447.88	31157.21
448.06	31344.45
448.25	32231.52
448.43	32404.72
448.62	31580.85
448.80	31826.60
448.99	31587.87
449.17	32257.26
449.36	32130.87
449.54	33434.55
449.73	33912.02
449.91	34560.35
450.10	35147.82
450.28	35601.89
450.46	35529.33
450.65	35435.71
450.83	34675.04
451.02	33928.41
451.20	34246.72
451.39	34265.44
451.57	34019.69
451.76	34192.89
451.94	33965.85
452.13	33294.12
452.31	31510.63
452.49	30052.48
452.68	30225.68
452.86	30785.07
453.05	31218.07
453.23	32037.25
453.42	32561.53
453.60	33626.48
453.78	33933.09
453.97	33186.46
454.15	33404.13
454.34	32531.11
454.52	33067.09
454.70	31976.40
454.89	32423.44
455.07	32788.56
455.26	33385.40
455.44	34244.38
455.62	34462.05
455.81	35150.17
455.99	34890.37
456.17	34176.50
456.36	34719.51
456.54	35849.99
456.73	35400.60
456.91	36034.89
457.09	36444.48
457.28	36917.27
457.46	35143.14
457.64	35189.95
457.83	33949.47
458.01	33235.61
458.19	34288.85
458.38	34443.32
458.56	35215.70
458.74	35264.85
458.93	34916.11
459.11	34799.08
459.29	34536.94
459.48	34602.48
459.66	34108.63
459.84	35187.61
460.03	35353.79
460.21	35461.46
460.39	35981.06
460.57	36290.01
460.76	36474.91
460.94	36837.69
461.12	36018.50
461.31	36219.79
461.49	35889.77
461.67	36172.98
461.85	37172.39
462.04	36807.26
462.22	37542.19
462.40	37179.41
462.59	36931.31
462.77	36886.84
462.95	37251.97
463.13	36758.11
463.32	36020.84
463.50	35999.78
463.68	35505.93
463.86	36172.98
464.05	35466.14
464.23	34623.54
464.41	34607.16
464.59	34045.43
464.78	35964.67
464.96	35562.10
465.14	35332.73
465.32	36299.37
465.50	36830.67
465.69	37338.57
465.87	36715.98
466.05	35735.30
466.23	33694.35
466.41	33141.99
466.60	33956.49
466.78	34167.14
466.96	34981.65
467.14	35164.21
467.32	35981.06
467.51	35936.59
467.69	34162.46
467.87	35257.83
468.05	35885.09
468.23	35154.85
468.41	36009.14
468.60	35587.85
468.78	36236.17
468.96	35454.44
469.14	36526.40
469.32	36732.37
469.50	35204.00
469.69	35218.04
469.87	34513.54
470.05	34773.34
470.23	34616.52
470.41	34684.40
470.59	35182.93
470.77	35435.71
470.95	35749.34
471.14	36280.64
471.32	36659.81
471.50	38560.33
471.68	38330.95
471.86	38829.49
472.04	38841.19
472.22	39379.51
472.40	37249.63
472.58	36992.17
472.77	36825.99
472.95	37233.24
473.13	38302.87
473.31	37436.87
473.49	37193.45
473.67	38080.52
473.85	38197.54
474.03	39374.83
474.21	38960.56
474.39	39541.01
474.57	39901.45
474.75	40203.38
474.93	39744.64
475.12	38721.82
475.30	38834.17
475.48	38595.43
475.66	39552.71
475.84	38710.12
476.02	38770.97
476.20	38192.86
476.38	38899.70
476.56	39702.51
476.74	40392.97
476.92	40610.64
477.10	41324.50
477.28	42478.38
477.46	42256.03
477.64	42504.13
477.82	42979.26
478.00	42925.42
478.18	42450.30
478.36	42206.88
478.54	42415.19
478.72	42422.21
478.90	43592.48
479.08	44376.56
479.26	45010.84
479.44	44830.62
479.62	44713.59
479.80	44753.38
479.98	45024.89
480.16	45605.34
480.34	44772.11
480.52	44992.12
480.70	45488.31
480.88	45010.84
481.06	45904.93
481.24	46424.53
481.41	47714.16
481.59	47917.79
481.77	47363.08
481.95	46965.19
482.13	46878.59
482.31	46902.00
482.49	47489.47
482.67	47512.88
482.85	47700.12
483.03	48275.89
483.21	48591.86
483.39	48832.94
483.57	47957.58
483.74	47697.78
483.92	47791.40
484.10	47608.84
484.28	49265.94
484.46	49284.66
484.64	49656.81
484.82	49041.24
485.00	48442.07
485.18	47716.50
485.35	46349.63
485.53	43491.83
485.71	39395.90
485.89	38824.81
486.07	40767.45
486.25	44067.61
486.43	46501.76
486.61	47079.88
486.78	47545.64
486.96	47164.14
487.14	49202.74
487.32	49841.71
487.50	51299.86
487.68	51571.36
487.85	52409.28
488.03	52233.74
488.21	51552.64
488.39	51042.40
488.57	50419.82
488.75	50216.19
488.92	51089.21
489.10	53207.40
489.28	54440.86
489.46	54869.18
489.64	54630.44
489.81	55089.19
489.99	54630.44
490.17	54623.42
490.35	55082.17
490.53	54607.04
490.70	54223.19
490.88	54113.19
491.06	54990.89
491.24	55143.02
491.41	54075.74
491.59	52624.60
491.77	51931.81
491.95	52673.76
492.13	53794.87
492.30	55030.68
492.48	56067.53
492.66	56360.10
492.84	56287.54
493.01	56268.82
493.19	55664.96
493.37	55339.63
493.54	55004.93
493.72	55681.34
493.90	56690.12
494.08	57216.74
494.25	57673.14
494.43	57586.54
494.61	57963.37
494.79	58145.93
494.96	57769.10
495.14	57319.72
495.32	56563.73
495.49	55978.59
495.67	56800.12
495.85	58021.88
496.02	58440.84
496.20	58265.30
496.38	57719.95
496.55	57792.51
496.73	58253.59
496.91	58319.13
497.09	58908.94
497.26	59103.21
497.44	58459.56
497.62	58033.58
497.79	57216.74
497.97	55959.87
498.14	56210.31
498.32	57394.62
498.50	58333.17
498.67	58773.19
498.85	58440.84
499.03	58621.06
499.20	59009.59
499.38	58798.94
499.56	58700.64
499.73	58216.14
499.91	57963.37
500.08	57481.22
500.26	56987.36
500.44	57141.84
500.61	57993.79
500.79	57916.56
500.97	57432.07
501.14	57378.23
501.32	57055.24
501.49	56999.07
501.67	57347.81
501.84	57659.10
502.02	58152.95
502.20	58157.63
502.37	58564.88
502.55	58417.43
502.72	59007.25
502.90	59269.39
503.07	59173.42
503.25	58817.66
503.43	58106.14
503.60	57413.34
503.78	56577.77
503.95	57230.78
504.13	58532.12
504.30	59227.26
504.48	59028.31
504.65	58836.39
504.83	58883.20
505.01	59311.52
505.18	59676.64
505.36	60200.92
505.53	60320.29
505.71	60463.06
505.88	60446.68
506.06	59840.48
506.23	59709.41
506.41	59262.36
506.58	59416.84
506.76	59653.23
506.93	59529.19
507.11	59243.64
507.28	59283.43
507.46	58866.81
507.63	58466.58
507.81	58120.18
507.98	58445.52
508.16	59025.97
508.33	59442.59
508.50	59796.01
508.68	60266.45
508.85	60474.76
509.03	60626.90
509.20	60547.32
509.38	59653.23
509.55	58749.79
509.73	58883.20
509.90	59578.34
510.08	60076.87
510.25	59889.63
510.42	59704.73
510.60	59543.23
510.77	59793.67
510.95	60273.48
511.12	60303.90
511.30	60474.76
511.47	60839.89
511.64	60940.53
511.82	60732.22
511.99	59767.92
512.17	59281.09
512.34	59093.85
512.51	59337.26
512.69	59386.41
512.86	59405.14
513.04	59898.99
513.21	59770.26
513.38	59660.26
513.56	59098.53
513.73	58445.52
513.90	58827.02
514.08	58628.08
514.25	59093.85
514.43	59313.86
514.60	59414.50
514.77	59388.75
514.95	59531.53
515.12	59662.60
515.29	59564.29
515.47	60081.55
515.64	60221.98
515.81	59906.01
515.99	59435.56
516.16	58012.52
516.33	55868.59
516.51	54623.42
516.68	53813.60
516.85	53389.96
517.03	53640.40
517.20	56292.22
517.37	58539.14
517.54	59416.84
517.72	58948.73
517.89	57010.77
518.06	54426.82
518.24	54593.00
518.41	56797.78
518.58	58066.35
518.75	58328.49
518.93	58468.92
519.10	58330.83
519.27	58866.81
519.45	59229.60
519.62	59608.76
519.79	60184.54
519.96	59875.58
520.14	59475.35
520.31	58497.01
520.48	58525.10
520.65	58932.35
520.83	59784.30
521.00	60240.71
521.17	59779.62
521.34	59227.26
521.52	59770.26
521.69	60329.65
521.86	60659.66
522.03	60465.40
522.20	59238.96
522.38	58028.90
522.55	58129.54
522.72	58707.66
522.89	58946.39
523.07	59189.81
523.24	59505.78
523.41	60156.45
523.58	60526.25
523.75	60886.70
523.92	60814.14
524.10	60858.61
524.27	60769.67
524.44	60776.69
524.61	60280.50
524.78	60104.96
524.96	60004.31
525.13	60315.61
525.30	60299.22
525.47	60722.86
525.64	60687.75
525.81	59936.44
525.98	58686.59
526.16	57551.43
526.33	56404.57
526.50	56528.62
526.67	55796.03
526.84	56584.79
527.01	57619.31
527.18	58525.10
527.36	59213.21
527.53	59901.33
527.70	60165.81
527.87	59735.15
528.04	59299.81
528.21	59702.38
528.38	60472.42
528.55	60678.39
528.72	60954.57
528.89	61148.84
529.07	60956.91
529.24	60336.67
529.41	59753.88
529.58	59442.59
529.75	59107.89
529.92	59543.23
530.09	60013.68
530.26	60523.91
530.43	60832.86
530.60	60945.21
530.77	61080.96
530.94	61286.93
531.11	60601.15
531.28	60289.86
531.46	60168.15
531.63	60254.75
531.80	59978.57
531.97	59746.86
532.14	59199.17
532.31	58351.90
532.48	57614.63
532.65	57450.79
532.82	58553.18
532.99	59543.23
533.16	59723.45
533.33	60247.73
533.50	60058.15
533.67	59456.63
533.84	59000.22
534.01	59318.54
534.18	59650.89
534.35	59718.77
534.52	59395.77
534.69	59613.44
534.86	60004.31
535.03	60259.43
535.20	60718.18
535.37	61141.81
535.54	61020.11
535.71	60725.20
535.88	60355.39
536.05	59686.00
536.22	59559.61
536.38	59304.49
536.55	58805.96
536.72	58246.57
536.89	58176.36
537.06	59082.14
537.23	59777.28
537.40	59990.27
537.57	60163.47
537.74	59751.54
537.91	59859.20
538.08	59842.82
538.25	59671.96
538.42	59803.03
538.59	59606.42
538.75	59035.33
538.92	58913.62
539.09	58628.08
539.26	58468.92
539.43	58410.41
539.60	58529.78
539.77	58590.63
539.94	58588.29
540.11	57911.88
540.28	57172.27
540.44	57326.74
540.61	57750.38
540.78	57844.00
540.95	58218.49
541.12	58679.57
541.29	58927.67
541.46	58997.88
541.62	59112.57
541.79	59194.49
541.96	58412.75
542.13	58478.28
542.30	58735.74
542.47	59018.95
542.63	58454.88
542.80	58326.15
542.97	58632.76
543.14	58522.76
543.31	58384.66
543.48	59035.33
543.64	59669.62
543.81	60142.41
543.98	59941.12
544.15	59054.06
544.32	58475.94
544.48	58625.74
544.65	58990.86
544.82	59248.32
544.99	58974.48
545.16	58527.44
545.32	58452.54
545.49	59147.68
545.66	59786.64
545.83	59150.02
546.00	58899.58
546.16	58497.01
546.33	58541.48
546.50	58621.06
546.67	59138.32
546.83	58672.55
547.00	58796.60
547.17	58017.20
547.34	57598.24
547.50	57565.48
547.67	57930.60
547.84	58047.63
548.00	58396.37
548.17	58817.66
548.34	58644.46
548.51	58583.61
548.67	58560.20
548.84	58698.30
549.01	58796.60
549.18	58522.76
549.34	58569.57
549.51	58475.94
549.68	58347.21
549.84	58225.51
550.01	58108.48
550.18	58115.50
550.34	58176.36
550.51	58220.83
550.68	58438.50
550.84	57642.71
551.01	57965.71
551.18	57834.64
551.34	58019.54
551.51	58372.96
551.68	58665.53
551.84	58590.63
552.01	58410.41
552.18	58335.51
552.34	57558.45
552.51	57010.77
552.68	56844.59
552.84	57448.45
553.01	57654.42
553.18	57769.10
553.34	58005.50
553.51	58262.96
553.67	58059.33
553.84	58204.44
554.01	58262.96
554.17	57855.70
554.34	58092.10
554.51	58000.82
554.67	58499.35
554.84	58251.25
555.00	58150.61
555.17	57867.40
555.33	57682.50
555.50	57668.46
555.67	57872.09
555.83	57584.20
556.00	57371.21
556.16	57268.23
556.33	56968.64
556.50	56734.59
556.66	56704.16
556.83	56439.68
556.99	56750.97
557.16	56584.79
557.32	57261.21
557.49	57441.43
557.65	57303.34
557.82	57310.36
557.98	57134.82
558.15	56472.45
558.32	55882.63
558.48	54850.45
558.65	55145.36
558.81	55480.06
558.98	55819.44
559.14	55906.04
559.31	56055.83
559.47	56067.53
559.64	55573.68
559.80	55290.48
559.97	55538.57
560.13	55849.86
560.30	56690.12
560.46	57127.80
560.63	57343.12
560.79	57537.39
560.96	57298.65
561.12	55716.45
561.29	55196.85
561.45	55306.86
561.61	55859.23
561.78	56193.92
561.94	56217.33
562.11	55936.46
562.27	55826.46
562.44	55959.87
562.60	56423.29
562.77	56589.47
562.93	56299.25
563.10	56470.11
563.26	55779.65
563.42	56020.72
563.59	55559.64
563.75	55463.67
563.92	55679.00
564.08	55599.43
564.24	55934.12
564.41	56170.52
564.57	55859.23
564.74	55512.83
564.90	55599.43
565.07	55522.19
565.23	55161.75
565.39	54213.83
565.56	54316.81
565.72	54038.29
565.88	54356.60
566.05	54370.64
566.21	54845.77
566.38	54848.11
566.54	55054.08
566.70	55175.79
566.87	55529.21
567.03	55861.57
567.19	55884.97
567.36	55536.23
567.52	55145.36
567.68	55180.47
567.85	54337.88
568.01	54246.60
568.17	53911.90
568.34	53684.87
568.50	53731.68
568.66	53958.71
568.83	54248.94
568.99	54190.42
569.15	54543.84
569.32	54548.53
569.48	53998.50
569.64	54106.16
569.81	53666.14
569.97	53591.25
570.13	53595.93
570.30	53226.12
570.46	52711.20
570.62	52315.65
570.78	51957.55
570.95	52107.35
571.11	52971.00
571.27	52968.66
571.43	53609.97
571.60	53502.31
571.76	53888.49
571.92	54134.25
572.09	54351.92
572.25	54403.41
572.41	54328.52
572.57	53804.24
572.74	53932.96
572.90	53469.54
573.06	53638.06
573.22	53792.53
573.38	53776.15
573.55	53616.99
573.71	53701.25
573.87	53698.91
574.03	53535.07
574.20	53291.66
574.36	52999.09
574.52	52842.27
574.68	52816.53
574.84	52250.12
575.01	51831.16
575.17	52046.49
575.33	52093.30
575.49	52322.68
575.65	52381.19
575.82	52154.16
575.98	52053.51
576.14	52282.89
576.30	52919.51
576.46	52793.12
576.62	52479.49
576.79	52659.71
576.95	52301.61
577.11	51906.06
577.27	52306.29
577.43	52561.41
577.59	52027.77
577.75	51416.89
577.92	50806.01
578.08	50735.79
578.24	50962.82
578.40	51030.70
578.56	51554.98
578.72	51683.71
578.88	51901.38
579.04	51674.35
579.21	51917.76
579.37	52135.43
579.53	52404.59
579.69	51941.17
579.85	52053.51
580.01	51852.23
580.17	51604.13
580.33	51288.16
580.49	51641.58
580.65	51856.91
580.82	52200.97
580.98	51990.32
581.14	51805.42
581.30	51697.75
581.46	51632.22
581.62	52233.74
581.78	51833.50
581.94	52097.98
582.10	52158.84
582.26	52002.02
582.42	51973.94
582.58	52025.43
582.74	51915.42
582.90	52140.11
583.06	52212.67
583.22	51735.20
583.38	51683.71
583.54	51620.52
583.70	51786.69
583.86	51683.71
584.02	51323.27
584.18	51695.41
584.34	51201.56
584.50	51255.39
584.66	51306.88
584.82	50892.61
584.98	51028.36
585.14	50471.31
585.30	50190.45
585.46	49322.11
585.62	49385.30
585.78	49741.06
585.94	49698.94
586.10	49820.64
586.26	50127.25
586.42	50169.38
586.58	50761.54
586.74	50988.57
586.90	50555.57
587.06	50230.24
587.22	50373.01
587.38	50150.66
587.54	49902.56
587.70	49977.46
587.86	49235.51
588.02	48861.02
588.18	49092.74
588.34	47552.66
588.49	45134.89
588.65	43370.13
588.81	43178.20
588.97	43103.31
589.13	42864.57
589.29	43257.78
589.45	43917.81
589.61	45186.38
589.77	46574.32
589.93	47384.15
590.08	48208.01
590.24	48383.55
590.40	48399.94
590.56	48645.69
590.72	47894.38
590.88	47547.98
591.04	47358.40
591.20	47112.64
591.35	47035.41
591.51	47260.10
591.67	47367.76
591.83	47206.26
591.99	47564.37
592.15	47456.70
592.31	47875.66
592.46	48088.65
592.62	47765.65
592.78	46780.29
592.94	47311.59
593.10	47267.12
593.26	47529.26
593.41	48306.32
593.57	47882.68
593.73	47159.45
593.89	46539.21
594.05	46639.86
594.20	46033.66
594.36	45811.31
594.52	45958.76
594.68	45516.40
594.84	45895.56
594.99	46506.44
595.15	46417.50
595.31	46934.76
595.47	46834.12
595.62	46616.45
595.78	47103.28
595.94	47072.85
596.10	47033.07
596.25	46930.08
596.41	46534.53
596.57	46340.27
596.73	46557.94
596.88	46628.15
597.04	46749.86
597.20	46073.45
597.36	45930.67
597.51	46213.88
597.67	46366.01
597.83	46073.45
597.99	45682.58
598.14	45359.58
598.30	45270.64
598.46	45504.70
598.61	45624.06
598.77	45427.46
598.93	45904.93
599.09	46501.76
599.24	46108.55
599.40	45633.42
599.56	45909.61
599.71	46089.83
599.87	46138.98
600.03	45851.09
600.18	45359.58
600.34	45455.54
600.50	44914.88
600.65	44832.96
600.81	45324.47
600.97	44891.48
601.12	44994.46
601.28	45186.38
601.44	44650.40
601.59	44559.12
601.75	43583.12
601.91	43765.68
602.06	44053.56
602.22	44128.46
602.37	44107.40
602.53	44364.85
602.69	44818.92
602.84	45226.17
603.00	45373.63
603.16	45759.81
603.31	45741.09
603.47	45167.66
603.62	45624.06
603.78	44861.05
603.94	44903.18
604.09	44837.64
604.25	44547.42
604.40	44961.69
604.56	44680.83
604.71	44311.02
604.87	44797.85
605.03	44236.12
605.18	44172.93
605.34	44353.15
605.49	43676.74
605.65	44339.11
605.80	43831.21
605.96	43711.84
606.12	43388.85
606.27	43552.69
606.43	43395.87
606.58	43756.32
606.74	43751.63
606.89	44074.63
607.05	44222.08
607.20	43971.64
607.36	43145.44
607.51	42904.36
607.67	42586.05
607.82	42862.23
607.98	42543.92
608.13	42808.40
608.29	42466.68
608.44	42555.62
608.60	42197.52
608.75	42153.05
608.91	42227.95
609.06	41942.40
609.22	42417.53
609.37	42167.09
609.53	42380.08
609.68	41890.91
609.84	41127.89
609.99	41001.50
610.15	40985.12
610.30	41144.28
610.46	41507.06
610.61	41703.67
610.76	42539.24
610.92	42553.28
611.07	42380.08
611.23	42557.96
611.38	42492.43
611.54	41741.11
611.69	41338.54
611.84	40306.37
612.00	40662.13
612.15	40456.16
612.31	40650.42
612.46	40907.88
612.62	41057.68
612.77	40701.92
612.92	41317.48
613.08	40421.05
613.23	39807.83
613.39	38876.30
613.54	38981.62
613.69	38862.26
613.85	38766.29
614.00	39407.60
614.15	39779.74
614.31	39941.24
614.46	40320.41
614.62	39854.64
614.77	40158.91
614.92	39826.56
615.08	39433.35
615.23	39498.88
615.38	39234.40
615.54	38602.46
615.69	37563.26
615.84	36781.52
616.00	36669.17
616.15	37446.23
616.30	37532.83
616.46	37528.15
616.61	36804.92
616.76	37331.54
616.92	37933.06
617.07	37858.17
617.22	38611.82
617.37	38534.58
617.53	38775.66
617.68	38885.66
617.83	38808.42
617.99	38827.15
618.14	38937.15
618.29	39082.27
618.45	38469.04
618.60	37673.26
618.75	37319.84
618.90	37703.69
619.06	37563.26
619.21	38239.67
619.36	38370.74
619.51	37919.02
619.67	38064.13
619.82	37315.16
619.97	38309.89
620.12	37743.48
620.28	37900.29
620.43	38480.75
620.58	38087.54
620.73	37441.55
620.89	37450.91
621.04	37118.56
621.19	36863.44
621.34	36893.86
621.49	36751.09
621.65	36521.72
621.80	36414.05
621.95	36488.95
622.10	36924.29
622.25	36907.91
622.41	36517.04
622.56	36006.80
622.71	35318.68
622.86	36062.97
623.01	35737.64
623.16	35927.22
623.32	35592.53
623.47	35849.99
623.62	35849.99
623.77	35637.00
623.92	34983.99
624.07	34827.17
624.23	34476.09
624.38	34274.80
624.53	35065.91
624.68	34759.30
624.83	34611.84
624.98	34202.25
625.13	33645.20
625.29	33694.35
625.44	34164.80
625.59	34064.16
625.74	34401.19
625.89	34361.40
626.04	34167.14
626.19	34263.10
626.34	34581.42
626.49	34160.12
626.65	34122.67
626.80	34345.02
626.95	34244.38
627.10	33748.18
627.25	33200.50
627.40	32283.01
627.55	31824.26
627.70	31213.38
627.85	31424.03
628.00	32273.65
628.15	32362.59
628.30	32678.56
628.45	32814.31
628.60	32933.68
628.76	32753.46
628.91	32992.19
629.06	32687.92
629.21	32545.15
629.36	32311.10
629.51	32067.68
629.66	31955.33
629.81	31335.09
629.96	31711.92
630.11	31854.69
630.26	32357.91
630.41	32411.74
630.56	32250.24
630.71	32606.00
630.86	32360.25
631.01	31784.48
631.16	32039.59
631.31	31056.57
631.46	30618.89
631.61	31023.80
631.76	31381.90
631.91	31512.97
632.06	31527.02
632.21	31585.53
632.36	32095.77
632.51	32002.14
632.66	31700.22
632.81	31679.15
632.96	31606.59
633.10	31508.29
633.25	30918.48
633.40	31126.78
633.55	30546.33
633.70	30890.39
633.85	31424.03
634.00	30918.48
634.15	31150.19
634.30	30932.52
634.45	31194.66
634.60	31173.60
634.75	31225.09
634.90	31030.82
635.05	30829.54
635.19	30991.03
635.34	31232.11
635.49	30450.37
635.64	30717.19
635.79	30366.11
635.94	30003.33
636.09	30422.28
636.24	30071.20
636.39	30588.46
636.53	30852.94
636.68	31044.87
636.83	30565.06
636.98	30719.53
637.13	30551.01
637.28	31051.89
637.43	31079.97
637.57	30794.43
637.72	30347.39
637.87	30389.52
638.02	30171.85
638.17	30377.81
638.32	30347.39
638.46	30459.73
638.61	30382.49
638.76	29942.47
638.91	29865.24
639.06	29448.62
639.20	29516.50
639.35	29188.82
639.50	28526.45
639.65	28664.54
639.80	28727.74
639.94	29280.10
640.09	29062.43
640.24	29188.82
640.39	28907.96
640.54	28790.93
640.68	28713.69
640.83	28355.59
640.98	28353.25
641.13	28465.60
641.27	28547.51
641.42	28453.89
641.57	28362.61
641.72	28268.99
641.86	28070.04
642.01	28367.29
642.16	28629.43
642.31	28638.80
642.45	29287.12
642.60	28671.56
642.75	28311.12
642.90	28294.74
643.04	28254.95
643.19	28194.09
643.34	28217.50
643.48	27835.99
643.63	27873.44
643.78	27545.76
643.93	28226.86
644.07	28360.27
644.22	28533.47
644.37	28411.76
644.51	27957.70
644.66	27697.90
644.81	27828.97
644.95	27782.16
645.10	27431.08
645.25	27276.60
645.39	27054.25
645.54	27232.13
645.69	27068.30
645.83	26639.98
645.98	26375.50
646.13	26497.20
646.27	26230.38
646.42	26668.06
646.57	26312.30
646.71	26529.97
646.86	26010.37
647.00	26459.76
647.15	26155.49
647.30	26160.17
647.44	25387.79
647.59	26092.29
647.74	25699.08
647.88	25591.42
648.03	25663.97
648.17	25427.58
648.32	25949.52
648.47	26324.01
648.61	25891.01
648.76	25766.96
648.90	25083.52
649.05	24753.51
649.20	23885.17
649.34	23833.68
649.49	24133.26
649.63	24425.83
649.78	24882.24
649.92	25563.33
650.07	25947.18
650.21	25706.10
650.36	26206.98
650.51	25722.49
650.65	26164.85
650.80	25933.14
650.94	25724.83
651.09	25439.28
651.23	24713.72
651.38	24512.43
651.52	24409.45
651.67	24830.74
651.81	24837.76
651.96	24816.70
652.10	25331.62
652.25	24730.10
652.39	24915.00
652.54	25149.06
652.68	25010.96
652.83	25027.35
652.97	25074.16
653.12	24739.46
653.26	24819.04
653.41	25207.57
653.55	24903.30
653.70	25036.71
653.84	24891.60
653.99	24615.41
654.13	24304.12
654.27	23742.39
654.42	23632.39
654.56	23604.30
654.71	23814.95
654.85	23438.12
655.00	23094.07
655.14	23126.83
655.29	22632.98
655.43	22560.42
655.57	21593.78
655.72	19974.13
655.86	18307.67
656.01	17745.94
656.15	17619.55
656.30	18541.72
656.44	20016.26
656.58	20475.01
656.73	21553.99
656.87	22019.76
657.01	21996.35
657.16	22838.95
657.30	22640.00
657.45	23267.27
657.59	23077.68
657.73	22955.97
657.88	23391.31
658.02	23061.30
658.16	23180.67
658.31	23239.18
658.45	23199.39
658.60	23225.14
658.74	22883.42
658.88	22750.01
659.03	22401.27
659.17	22167.21
659.31	22155.51
659.46	22670.43
659.60	22527.66
659.74	22918.53
659.89	22691.49
660.03	22923.21
660.17	23192.37
660.32	22726.60
660.46	22934.91
660.60	22424.67
660.74	22319.35
660.89	22679.79
661.03	22199.98
661.17	22618.94
661.32	22373.18
661.46	22637.66
661.60	22560.42
661.74	22174.24
661.89	22260.84
662.03	22190.62
662.17	22352.12
662.31	22209.34
662.46	22326.37
662.60	22335.73
662.74	22061.89
662.88	21916.78
663.03	21778.68
663.17	21434.63
663.31	21399.52
663.45	21521.23
663.60	21563.36
663.74	21350.37
663.88	21228.66
664.02	21090.57
664.17	21090.57
664.31	21408.88
664.45	21661.66
664.59	21649.96
664.73	21610.17
664.88	21474.42
665.02	21371.43
665.16	21591.44
665.30	21277.81
665.44	21406.54
665.59	21231.00
665.73	21221.64
665.87	20355.64
666.01	20308.83
666.15	20528.84
666.29	20276.06
666.44	20610.76
666.58	20622.46
666.72	20493.73
666.86	20765.23
667.00	20769.91
667.14	20596.71
667.28	20563.95
667.43	20596.71
667.57	20262.02
667.71	20231.59
667.85	20013.92
667.99	20297.13
668.13	20051.37
668.27	20350.96
668.41	20086.48
668.56	19730.72
668.70	20432.88
668.84	20093.50
668.98	20051.37
669.12	19812.63
669.26	19908.60
669.40	19665.18
669.54	19637.09
669.68	19606.67
669.82	19681.56
669.96	19597.31
670.10	19328.14
670.25	19424.11
670.39	19281.33
670.53	19246.23
670.67	19213.46
670.81	19218.14
670.95	18944.30
671.09	18934.93
671.23	18640.03
671.37	18490.23
671.51	18539.38
671.65	18579.17
671.79	18684.50
671.93	18588.53
672.07	18881.10
672.21	18523.00
672.35	18511.30
672.49	18216.39
672.63	18630.66
672.77	18410.65
672.91	18075.96
673.05	18178.94
673.19	18284.26
673.33	18176.60
673.47	18115.75
673.61	18295.97
673.75	17729.56
673.89	18054.89
674.03	17799.77
674.17	17968.29
674.31	17958.93
674.45	17811.48
674.59	17528.27
674.73	17701.47
674.87	17706.15
675.01	17589.13
675.15	17266.13
675.29	17479.12
675.43	17518.91
675.56	17233.36
675.70	17270.81
675.84	17467.42
675.98	16868.24
676.12	17083.57
676.26	17202.94
676.40	17032.08
676.54	17013.35
676.68	16793.34
676.82	16547.59
676.96	16851.86
677.10	16615.46
677.23	16362.69
677.37	16470.35
677.51	16442.26
677.65	16840.15
677.79	16259.70
677.93	16463.33
678.07	15992.88
678.21	16053.73
678.34	15969.48
678.48	15728.40
678.62	15892.24
678.76	15723.72
678.90	15782.23
679.04	15627.76
679.18	15667.55
679.31	15805.64
679.45	15459.24
679.59	15548.18
679.73	15417.11
679.87	15314.13
680.00	15314.13
680.14	15283.70
680.28	15197.10
680.42	15187.74
680.56	14897.51
680.70	14967.73
680.83	14691.54
680.97	14745.38
681.11	14848.36
681.25	14815.59
681.39	15019.22
681.52	14890.49
681.66	15012.20
681.80	14834.32
681.94	14881.13
682.07	14757.08
682.21	14689.20
682.35	14459.83
682.49	14256.20
682.62	14326.42
682.76	14148.54
682.90	14057.26
683.04	14031.51
683.17	14139.18
683.31	13788.10
683.45	13870.01
683.59	13687.45
683.72	13465.10
683.86	13245.09
684.00	13107.00
684.13	13282.54
684.27	13577.45
684.41	13612.56
684.55	13219.35
684.68	13282.54
684.82	13256.79
684.96	13334.03
685.09	13121.04
685.23	12835.50
685.37	12627.19
685.50	12938.48
685.64	12519.53
685.78	12652.94
685.91	12889.33
686.05	12606.13
686.19	12217.60
686.32	11833.75
686.46	10300.70
686.60	9076.60
686.73	8287.84
686.87	7861.86
687.01	7864.20
687.14	7990.59
687.28	8154.43
687.42	8521.89
687.55	8849.57
687.69	9661.73
687.82	9900.47
687.96	10415.38
688.10	10104.09
688.23	10310.06
688.37	10003.45
688.50	9909.83
688.64	9760.03
688.78	9619.60
688.91	9619.60
689.05	9448.74
689.18	9366.82
689.32	9369.16
689.46	9647.69
689.59	9586.83
689.73	9652.37
689.86	9544.70
690.00	9753.01
690.13	9797.48
690.27	9689.82
690.41	9827.91
690.54	9635.99
690.68	9830.25
690.81	9710.88
690.95	10174.31
691.08	9811.53
691.22	9799.82
691.35	9935.57
691.49	9900.47
691.62	9898.13
691.76	10050.26
691.89	9991.75
692.03	9823.23
692.16	9614.92
692.30	9781.10
692.43	9645.35
692.57	9540.02
692.70	9479.17
692.84	9277.88
692.97	9100.00
693.11	9465.13
693.24	9116.39
693.38	9247.46
693.51	8945.53
693.65	9069.58
693.78	8741.90
693.92	8805.10
694.05	8805.10
694.19	8748.92
694.32	8950.21
694.45	8842.54
694.59	8748.92
694.72	8734.88
694.86	8903.40
694.99	8636.58
695.13	8875.31
695.26	8557.00
695.39	8432.95
695.53	8381.46
695.66	8482.10
695.80	8557.00
695.93	8397.84
696.07	8475.08
696.20	8781.69
696.33	8777.01
696.47	8826.16
696.60	8922.12
696.73	8884.67
696.87	8779.35
697.00	8823.82
697.14	8681.05
697.27	8376.78
697.40	8606.15
697.54	8271.45
697.67	8112.30
697.80	8053.78
697.94	8030.38
698.07	7920.37
698.21	7885.26
698.34	7962.50
698.47	7854.84
698.61	7606.74
698.74	7880.58
698.87	7817.39
699.01	7744.83
699.14	7775.26
699.27	7618.44
699.40	7737.81
699.54	7623.12
699.67	7517.80
699.80	7559.93
699.94	7506.10
700.07	7414.82
700.20	7122.25
700.34	7138.63
700.47	7047.35
700.60	7110.55
700.73	7176.08
700.87	7002.88
701.00	7098.84
701.13	7030.97
701.26	6951.39
701.40	6892.88
701.53	6864.79
701.66	6881.18
701.79	6815.64
701.93	6731.38
702.06	6984.16
702.19	6927.99
702.32	6647.12
702.46	6609.67
702.59	6640.10
702.72	6574.56
702.85	6733.72
702.99	6841.39
703.12	6703.29
703.25	6506.69
703.38	6738.40
703.51	6506.69
703.65	6621.38
703.78	6321.79
703.91	6471.58
704.04	6476.26
704.17	6693.93
704.31	6466.90
704.44	6579.25
704.57	6415.41
704.70	6420.09
704.83	6427.11
704.96	6286.68
705.10	6459.88
705.23	6274.98
>>>>>End Processed Spectral Data<<<<<
