SpectraSuite Data File
++++++++++++++++++++++++++++++++++++
Date: Fri Oct 04 11:44:15 GMT-05:00 2013
User: price-jones
Dark Spectrum Present: No
Reference Spectrum Present: No
Number of Sampled Component Spectra: 1
Spectrometers: USB2+H05261
Integration Time (usec): 100000 (USB2+H05261)
Spectra Averaged: 1 (USB2+H05261)
Boxcar Smoothing: 0 (USB2+H05261)
Correct for Electrical Dark: No (USB2+H05261)
Strobe/Lamp Enabled: No (USB2+H05261)
Correct for Detector Non-linearity: No (USB2+H05261)
Correct for Stray Light: No (USB2+H05261)
Number of Pixels in Processed Spectrum: 2048
>>>>>Begin Processed Spectral Data<<<<<
365.73	42.13
365.92	42.13
366.12	42.13
366.32	0.00
366.52	0.00
366.72	0.00
366.91	0.00
367.11	0.00
367.31	0.00
367.51	0.00
367.70	0.00
367.90	0.00
368.10	0.00
368.30	0.00
368.49	0.00
368.69	0.00
368.89	0.00
369.09	0.00
369.28	0.00
369.48	0.00
369.68	0.00
369.87	0.00
370.07	0.00
370.27	58.51
370.47	236.39
370.66	664.71
370.86	826.21
371.06	854.30
371.25	898.77
371.45	854.30
371.65	678.76
371.84	727.91
372.04	725.57
372.24	636.63
372.44	807.48
372.63	823.87
372.83	779.40
373.03	676.41
373.22	629.60
373.42	688.12
373.62	737.27
373.81	866.00
374.01	800.46
374.21	746.63
374.40	683.44
374.60	716.20
374.79	788.76
374.99	966.64
375.19	933.87
375.38	952.60
375.58	961.96
375.78	912.81
375.97	898.77
376.17	961.96
376.37	954.94
376.56	950.26
376.76	1022.81
376.95	1083.67
377.15	1144.52
377.35	1245.16
377.54	1107.07
377.74	1235.80
377.93	1188.99
378.13	1291.98
378.33	1210.06
378.52	1039.20
378.72	1111.75
378.91	1078.99
379.11	992.39
379.31	1015.79
379.50	1018.13
379.70	1086.01
379.89	1102.39
380.09	1142.18
380.28	1205.38
380.48	1184.31
380.68	1198.35
380.87	1142.18
381.07	1081.33
381.26	1090.69
381.46	929.19
381.65	1008.77
381.85	891.74
382.04	901.11
382.24	863.66
382.43	826.21
382.63	763.01
382.83	727.91
383.02	779.40
383.22	812.17
383.41	828.55
383.61	814.51
383.80	901.11
384.00	1060.26
384.19	1158.57
384.39	1252.19
384.58	1142.18
384.78	1214.74
384.97	1191.33
385.17	1060.26
385.36	1074.31
385.56	1095.37
385.75	997.07
385.95	1132.82
386.14	1324.74
386.34	1172.61
386.53	1121.12
386.72	1139.84
386.92	1238.14
387.11	1153.88
387.31	1123.46
387.50	1137.50
387.70	1228.78
387.89	1184.31
388.09	1217.08
388.28	1156.22
388.48	1130.48
388.67	1247.51
388.86	1261.55
389.06	1432.41
389.25	1519.01
389.45	1474.54
389.64	1614.97
389.84	1535.39
390.03	1413.68
390.22	1516.67
390.42	1565.82
390.61	1638.38
390.81	1795.19
391.00	1788.17
391.19	1682.85
391.39	1657.10
391.58	1535.39
391.78	1540.07
391.97	1425.39
392.16	1247.51
392.36	1231.12
392.55	1036.86
392.75	868.34
392.94	777.06
393.13	725.57
393.33	894.08
393.52	1071.97
393.71	1205.38
393.91	1350.49
394.10	1378.58
394.29	1626.67
394.49	1589.22
394.68	1844.34
394.88	1816.26
395.07	1816.26
395.26	1783.49
395.46	1771.79
395.65	1692.21
395.84	1483.90
396.04	1317.72
396.23	1029.84
396.42	957.28
396.62	891.74
396.81	1039.20
397.00	1188.99
397.19	1528.37
397.39	1788.17
397.58	1935.62
397.77	1954.35
397.97	2073.71
398.16	2155.63
398.35	2260.96
398.55	2387.35
398.74	2502.03
398.93	2415.43
399.12	2375.64
399.32	2331.17
399.51	2527.78
399.70	2471.61
399.90	2541.82
400.09	2506.71
400.28	2518.42
400.47	2523.10
400.67	2558.21
400.86	2675.23
401.05	2693.96
401.24	2661.19
401.44	2696.30
401.63	2663.53
401.82	2602.68
402.01	2726.72
402.21	2703.32
402.40	2649.49
402.59	2619.06
402.78	2572.25
402.97	2560.55
403.17	2588.63
403.36	2733.75
403.55	2738.43
403.74	2855.45
403.93	2825.03
404.13	2609.70
404.32	2736.09
404.51	2754.81
404.70	2853.11
404.89	2810.98
405.09	2796.94
405.28	2630.76
405.47	2757.15
405.66	2768.85
405.85	2609.70
406.05	2605.02
406.24	2434.16
406.43	2764.17
406.62	2663.53
406.81	2869.50
407.00	2696.30
407.20	2544.16
407.39	2693.96
407.58	2766.51
407.77	2827.37
407.96	3045.04
408.15	2944.39
408.34	2956.10
408.54	3155.04
408.73	3124.62
408.92	3052.06
409.11	2965.46
409.30	2808.64
409.49	2698.64
409.68	2441.18
409.87	2520.76
410.07	2562.89
410.26	2693.96
410.45	2892.90
410.64	2918.65
410.83	3073.12
411.02	3178.45
411.21	3157.38
411.40	3145.68
411.59	3192.49
411.78	3110.57
411.98	3087.17
412.17	3253.34
412.36	3215.90
412.55	3068.44
412.74	3138.66
412.93	3063.76
413.12	3122.27
413.31	3346.97
413.50	3379.73
413.69	3370.37
413.88	3316.54
414.07	3180.79
414.26	3206.53
414.45	3316.54
414.64	3351.65
414.83	3330.58
415.02	3227.60
415.22	3316.54
415.41	3272.07
415.60	3487.40
415.79	3520.17
415.98	3618.47
416.17	3733.15
416.36	3578.68
416.55	3461.65
416.74	3485.06
416.93	3417.18
417.12	3424.20
417.31	3358.67
417.50	3442.93
417.69	3557.61
417.88	3576.34
418.07	3428.88
418.26	3536.55
418.45	3384.41
418.64	3501.44
418.83	3644.21
419.02	3571.66
419.21	3623.15
419.39	3431.23
419.58	3307.18
419.77	3234.62
419.96	3438.25
420.15	3655.92
420.34	3784.65
420.53	3864.22
420.72	3962.53
420.91	3904.01
421.10	3803.37
421.29	3822.09
421.48	3658.26
421.67	3786.99
421.86	3754.22
422.05	3480.38
422.24	3225.26
422.43	3234.62
422.61	3414.84
422.80	3665.28
422.99	3756.56
423.18	3660.60
423.37	3485.06
423.56	3517.83
423.75	3651.24
423.94	3595.06
424.13	3461.65
424.32	3592.72
424.50	3616.13
424.69	3529.53
424.88	3499.10
425.07	3363.35
425.26	3510.80
425.45	3487.40
425.64	3267.39
425.83	3290.79
426.01	3487.40
426.20	3602.08
426.39	3630.17
426.58	3471.01
426.77	3236.96
426.96	3019.29
427.15	3143.34
427.33	3262.71
427.52	3475.70
427.71	3403.14
427.90	3506.12
428.09	3494.42
428.28	3548.25
428.46	3356.33
428.65	3227.60
428.84	3344.63
429.03	3410.16
429.22	3185.47
429.40	3038.02
429.59	2665.87
429.78	2480.97
429.97	2436.50
430.16	2539.48
430.34	2525.44
430.53	2452.88
430.72	2668.21
430.91	2839.07
431.10	3220.58
431.28	3702.73
431.47	4056.15
431.66	3967.21
431.85	3871.25
432.03	3655.92
432.22	3398.46
432.41	3419.52
432.60	3932.10
432.79	3857.20
432.97	4060.83
433.16	4002.32
433.35	3679.32
433.54	3386.76
433.72	3192.49
433.91	3318.88
434.10	3604.42
434.28	3878.27
434.47	4072.53
434.66	4044.45
434.85	3857.20
435.03	3976.57
435.22	4311.27
435.41	5174.92
435.59	5327.06
435.78	5032.15
435.97	4683.41
436.16	4388.50
436.34	4245.73
436.53	4187.22
436.72	4119.34
436.90	3911.04
437.09	3920.40
437.28	3817.41
437.46	4004.66
437.65	3971.89
437.84	3831.46
438.02	3473.36
438.21	3433.57
438.40	3515.48
438.58	3852.52
438.77	3805.71
438.96	3978.91
439.14	4044.45
439.33	4170.83
439.52	4231.69
439.70	4273.82
439.89	4161.47
440.08	4105.30
440.26	4070.19
440.45	4035.08
440.63	4425.95
440.82	4599.15
441.01	4397.87
441.19	4526.60
441.38	4383.82
441.57	4685.75
441.75	4690.43
441.94	4994.70
442.12	4589.79
442.31	4844.91
442.50	4662.35
442.68	4662.35
442.87	4723.20
443.05	4727.88
443.24	4669.37
443.43	4620.22
443.61	4931.51
443.80	4952.57
443.98	4676.39
444.17	4571.07
444.35	4980.66
444.54	5032.15
444.73	4950.23
444.91	4772.35
445.10	4629.58
445.28	4388.50
445.47	4369.78
445.65	4428.29
445.84	4496.17
446.02	4512.55
446.21	4823.84
446.39	4784.06
446.58	4753.63
446.77	4767.67
446.95	4856.61
447.14	4964.28
447.32	5188.97
447.51	4983.00
447.69	4795.76
447.88	4784.06
448.06	4809.80
448.25	4987.68
448.43	4868.31
448.62	4667.03
448.80	4784.06
448.99	4926.83
449.17	4945.55
449.36	4894.06
449.54	5022.79
449.73	5179.61
449.91	5254.50
450.10	5329.40
450.28	5378.55
450.46	5369.19
450.65	5317.70
450.83	5439.40
451.02	5240.46
451.20	5275.57
451.39	5135.14
451.57	5132.79
451.76	5336.42
451.94	5137.48
452.13	5036.83
452.31	4814.48
452.49	4737.24
452.68	4713.84
452.86	4718.52
453.05	4699.80
453.23	4870.65
453.42	5076.62
453.60	5076.62
453.78	4997.04
453.97	5062.58
454.15	4980.66
454.34	4971.30
454.52	4978.32
454.70	4868.31
454.89	4940.87
455.07	4943.21
455.26	5144.50
455.44	5046.20
455.62	5404.30
455.81	5345.78
455.99	5130.45
456.17	5245.14
456.36	5036.83
456.54	5268.55
456.73	5315.36
456.91	5418.34
457.09	5268.55
457.28	5636.01
457.46	5345.78
457.64	5364.51
457.83	5032.15
458.01	5118.75
458.19	5301.31
458.38	5203.01
458.56	5352.81
458.74	5448.77
458.93	5296.63
459.11	5352.81
459.29	5198.33
459.48	5097.69
459.66	5242.80
459.84	5252.16
460.03	5284.93
460.21	5392.59
460.39	5359.83
460.57	5397.28
460.76	5561.11
460.94	5446.43
461.12	5364.51
461.31	5399.62
461.49	5399.62
461.67	5584.52
461.85	5701.54
462.04	5493.24
462.22	6127.52
462.40	5619.63
462.59	5432.38
462.77	5628.99
462.95	5654.73
463.13	5511.96
463.32	5509.62
463.50	5437.06
463.68	5390.25
463.86	5460.47
464.05	5310.68
464.23	5273.23
464.41	5200.67
464.59	5128.11
464.78	5441.75
464.96	5441.75
465.14	5259.18
465.32	5371.53
465.50	5549.41
465.69	5593.88
465.87	5528.35
466.05	5547.07
466.23	5107.05
466.41	5041.51
466.60	4987.68
466.78	5142.16
466.96	5275.57
467.14	5378.55
467.32	5418.34
467.51	5406.64
467.69	5235.78
467.87	5200.67
468.05	5263.86
468.23	5537.71
468.41	5394.93
468.60	5343.44
468.78	5514.30
468.96	5287.27
469.14	5481.53
469.32	5357.49
469.50	5205.35
469.69	5373.87
469.87	5366.85
470.05	5331.74
470.23	5275.57
470.41	5284.93
470.59	5200.67
470.77	5242.80
470.95	5383.23
471.14	5528.35
471.32	5535.37
471.50	5816.23
471.68	5682.82
471.86	5977.73
472.04	5813.89
472.22	5944.96
472.40	5636.01
472.58	5366.85
472.77	5556.43
472.95	5479.19
473.13	5713.25
473.31	5612.60
473.49	5387.91
473.67	5589.20
473.85	5753.04
474.03	5902.83
474.21	5839.64
474.39	5933.26
474.57	6066.67
474.75	5865.38
474.93	5984.75
475.12	5949.64
475.30	5713.25
475.48	5827.93
475.66	5874.74
475.84	5753.04
476.02	5830.27
476.20	5671.12
476.38	5891.13
476.56	5956.66
476.74	6125.18
476.92	6061.99
477.10	6111.14
477.28	6300.72
477.46	6352.21
477.64	6504.35
477.82	6464.56
478.00	6417.75
478.18	6218.80
478.36	6097.10
478.54	6230.51
478.72	6455.20
478.90	6464.56
479.08	6796.92
479.26	6885.86
479.44	6733.72
479.62	6759.47
479.80	6628.40
479.98	6780.53
480.16	6881.18
480.34	6855.43
480.52	6855.43
480.70	6689.25
480.88	6906.92
481.06	7077.78
481.24	6836.70
481.41	7222.89
481.59	7419.50
481.77	7349.28
481.95	6951.39
482.13	7136.29
482.31	7208.85
482.49	7351.62
482.67	7353.96
482.85	7365.67
483.03	7344.60
483.21	7548.23
483.39	7573.97
483.57	7377.37
483.74	7192.47
483.92	7318.86
484.10	7382.05
484.28	7599.72
484.46	7793.98
484.64	7667.60
484.82	7417.16
485.00	7375.03
485.18	7442.90
485.35	7222.89
485.53	6787.55
485.71	6300.72
485.89	5959.00
486.07	6237.53
486.25	6895.22
486.43	7052.03
486.61	7358.64
486.78	7339.92
486.96	7318.86
487.14	7564.61
487.32	7906.33
487.50	7936.76
487.68	8201.24
487.85	8313.58
488.03	8306.56
488.21	8381.46
488.39	8191.88
488.57	8070.17
488.75	7868.88
488.92	8365.07
489.10	8559.34
489.28	8741.90
489.46	9156.18
489.64	9104.68
489.81	9046.17
489.99	9181.92
490.17	9198.31
490.35	9291.93
490.53	9069.58
490.70	8807.44
490.88	8777.01
491.06	9156.18
491.24	9123.41
491.41	8861.27
491.59	8734.88
491.77	8374.44
491.95	8397.84
492.13	8908.08
492.30	9238.09
492.48	9469.81
492.66	9387.89
492.84	9231.07
493.01	9565.77
493.19	9390.23
493.37	9235.75
493.54	8999.36
493.72	9362.14
493.90	9715.56
494.08	9753.01
494.25	10104.09
494.43	9942.60
494.61	10045.58
494.79	9947.28
494.96	10017.49
495.14	10085.37
495.32	9540.02
495.49	9315.33
495.67	9767.06
495.85	10153.24
496.02	10251.55
496.20	10562.84
496.38	10265.59
496.55	9977.70
496.73	10359.21
496.91	10251.55
497.09	10609.65
497.26	10593.26
497.44	10375.59
497.62	10422.41
497.79	9970.68
497.97	9427.68
498.14	9701.52
498.32	9736.63
498.50	10061.96
498.67	10483.26
498.85	10113.45
499.03	10242.18
499.20	10523.05
499.38	10600.29
499.56	10207.08
499.73	10253.89
499.91	10193.03
500.08	9935.57
500.26	9661.73
500.44	9919.19
500.61	10059.62
500.79	10113.45
500.97	9902.81
501.14	10050.26
501.32	9884.08
501.49	9851.31
501.67	9731.95
501.84	10104.09
502.02	9980.04
502.20	10010.47
502.37	10045.58
502.55	10148.56
502.72	10270.27
502.90	10434.11
503.07	10200.05
503.25	9963.66
503.43	9603.22
503.60	9352.78
503.78	9338.74
503.95	9514.28
504.13	9823.23
504.30	10188.35
504.48	10153.24
504.65	10160.27
504.83	10396.66
505.01	10408.36
505.18	10590.92
505.36	10576.88
505.53	10640.08
505.71	10796.89
505.88	10953.71
506.06	10469.22
506.23	10572.20
506.41	10619.01
506.58	10480.92
506.76	10331.12
506.93	10410.70
507.11	10413.04
507.28	10551.14
507.46	10464.54
507.63	10139.20
507.81	10125.16
507.98	10019.83
508.16	10293.68
508.33	10616.67
508.50	10869.45
508.68	11000.52
508.85	11073.07
509.03	10932.64
509.20	10801.57
509.38	11040.31
509.55	10602.63
509.73	10541.77
509.90	10920.94
510.08	10677.52
510.25	10789.87
510.42	10743.06
510.60	10607.31
510.77	10888.17
510.95	11192.44
511.12	10897.53
511.30	10986.47
511.47	11609.06
511.64	11470.97
511.82	11403.09
511.99	10960.73
512.17	10874.13
512.34	10579.22
512.51	10684.55
512.69	10780.51
512.86	10843.70
513.04	10993.50
513.21	10979.45
513.38	11023.92
513.56	10609.65
513.73	10434.11
513.90	10569.86
514.08	10501.98
514.25	10602.63
514.43	10509.01
514.60	10904.56
514.77	10813.28
514.95	10850.72
515.12	10593.26
515.29	10932.64
515.47	11110.52
515.64	11208.83
515.81	10977.11
515.99	10810.93
516.16	10401.34
516.33	9626.62
516.51	9177.24
516.68	8940.85
516.85	8692.75
517.03	8903.40
517.20	9366.82
517.37	10289.00
517.54	10691.57
517.72	10707.95
517.89	9928.55
518.06	9226.39
518.24	9167.88
518.41	9853.66
518.58	10281.97
518.75	10279.63
518.93	10499.64
519.10	10375.59
519.27	10469.22
519.45	10778.17
519.62	10778.17
519.79	11206.48
519.96	10946.69
520.14	11019.24
520.31	10406.02
520.48	10588.58
520.65	10686.89
520.83	10995.84
521.00	11136.27
521.17	11005.20
521.34	10944.34
521.52	10991.16
521.69	11300.11
521.86	11564.59
522.03	11094.14
522.20	10745.40
522.38	10539.43
522.55	10331.12
522.72	10417.72
522.89	10729.02
523.07	10764.12
523.24	10986.47
523.41	11185.42
523.58	11119.89
523.75	11426.50
523.92	11492.03
524.10	11337.56
524.27	11524.80
524.44	11400.75
524.61	11360.96
524.78	11101.16
524.96	11044.99
525.13	11180.74
525.30	11318.83
525.47	11501.39
525.64	11318.83
525.81	11211.17
525.98	10693.91
526.16	10190.69
526.33	10012.81
526.50	9963.66
526.67	9479.17
526.84	9827.91
527.01	10153.24
527.18	10499.64
527.36	10916.26
527.53	10927.96
527.70	11173.72
527.87	10885.83
528.04	10956.05
528.21	11117.54
528.38	11173.72
528.55	11569.27
528.72	11779.92
528.89	11798.64
529.07	11812.68
529.24	11524.80
529.41	11267.34
529.58	10775.83
529.75	10761.78
529.92	10972.43
530.09	11152.65
530.26	11276.70
530.43	11496.71
530.60	11587.99
530.77	11344.58
530.94	11845.45
531.11	11784.60
531.28	11473.31
531.46	11267.34
531.63	11365.64
531.80	11480.33
531.97	11288.40
532.14	10775.83
532.31	10555.82
532.48	10038.56
532.65	10249.21
532.82	10459.85
532.99	10878.81
533.16	11052.01
533.33	11211.17
533.50	11360.96
533.67	10731.36
533.84	10890.51
534.01	10958.39
534.18	11066.05
534.35	11239.25
534.52	10906.90
534.69	10967.75
534.86	11283.72
535.03	11499.05
535.20	11426.50
535.37	11903.96
535.54	11728.42
535.71	11700.34
535.88	11590.33
536.05	11466.28
536.22	11396.07
536.38	11152.65
536.55	10913.92
536.72	10476.24
536.89	10377.94
537.06	10677.52
537.23	11105.84
537.40	11440.54
537.57	11129.25
537.74	11257.98
537.91	11290.74
538.08	11208.83
538.25	11173.72
538.42	11433.52
538.59	11321.17
538.75	11201.80
538.92	10963.07
539.09	10925.62
539.26	10986.47
539.43	10778.17
539.60	10740.72
539.77	11037.97
539.94	10897.53
540.11	10693.91
540.28	10647.10
540.44	10527.73
540.61	10726.68
540.78	10853.06
540.95	11077.76
541.12	11360.96
541.29	11543.52
541.46	11702.68
541.62	11667.57
541.79	11709.70
541.96	11506.07
542.13	11375.00
542.30	11513.10
542.47	11756.51
542.63	11573.95
542.80	11309.47
542.97	11346.92
543.14	11424.15
543.31	11183.08
543.48	11257.98
543.64	11836.09
543.81	12105.25
543.98	11815.02
544.15	11756.51
544.32	11690.98
544.48	11428.84
544.65	11520.12
544.82	11754.17
544.99	11564.59
545.16	11403.09
545.32	11515.44
545.49	12423.56
545.66	13542.34
545.83	14090.02
546.00	13502.55
546.16	12608.47
546.33	11791.62
546.50	11510.75
546.67	11676.93
546.83	11438.20
547.00	11515.44
547.17	11276.70
547.34	10867.11
547.50	10939.66
547.67	10988.82
547.84	10757.10
548.00	10958.39
548.17	11103.50
548.34	11349.26
548.51	11349.26
548.67	11126.91
548.84	11133.93
549.01	11129.25
549.18	10981.79
549.34	10984.13
549.51	10956.05
549.68	10963.07
549.84	10834.34
550.01	10862.43
550.18	10764.12
550.34	10761.78
550.51	10920.94
550.68	10829.66
550.84	10644.76
551.01	10609.65
551.18	10635.39
551.34	10693.91
551.51	10981.79
551.68	10949.03
551.84	11178.40
552.01	10832.00
552.18	10794.55
552.34	10520.71
552.51	10487.94
552.68	10387.30
552.84	10516.03
553.01	10626.03
553.18	10626.03
553.34	10602.63
553.51	10635.39
553.67	10960.73
553.84	10700.93
554.01	10672.84
554.17	10628.37
554.34	10698.59
554.51	10691.57
554.67	10820.30
554.84	10958.39
555.00	10899.87
555.17	10609.65
555.33	10431.77
555.50	10532.41
555.67	10642.42
555.83	10480.92
556.00	10424.75
556.16	10413.04
556.33	10188.35
556.50	10317.08
556.66	10134.52
556.83	10029.20
556.99	10094.73
557.16	9977.70
557.32	9989.41
557.49	10200.05
557.65	10333.47
557.82	10347.51
557.98	10181.33
558.15	10146.22
558.32	9837.27
558.48	9479.17
558.65	9331.72
558.81	9500.23
558.98	9713.22
559.14	9813.87
559.31	9753.01
559.47	9987.07
559.64	9666.41
559.80	9624.28
559.97	9834.93
560.13	9741.31
560.30	10010.47
560.46	10251.55
560.63	10401.34
560.79	10324.10
560.96	10368.57
561.12	9937.91
561.29	9685.14
561.45	9727.27
561.61	9727.27
561.78	10150.90
561.94	9926.21
562.11	9914.51
562.27	9776.42
562.44	9666.41
562.60	10033.88
562.77	10003.45
562.93	9998.77
563.10	10003.45
563.26	9923.87
563.42	9914.51
563.59	9673.43
563.75	9783.44
563.92	9877.06
564.08	9825.57
564.24	9540.02
564.41	9795.14
564.57	9954.30
564.74	9720.24
564.90	9881.74
565.07	9685.14
565.23	9430.02
565.39	9486.19
565.56	9273.20
565.72	9406.61
565.88	9448.74
566.05	9455.76
566.21	9441.72
566.38	9427.68
566.54	9502.58
566.70	9469.81
566.87	9741.31
567.03	9628.96
567.19	9776.42
567.36	9549.39
567.52	9401.93
567.68	9247.46
567.85	9207.67
568.01	8982.98
568.17	8753.60
568.34	8816.80
568.50	8798.07
568.66	8755.94
568.83	8915.10
568.99	8887.01
569.15	9039.15
569.32	9188.94
569.48	8908.08
569.64	8936.17
569.81	8821.48
569.97	8798.07
570.13	8709.13
570.30	8964.25
570.46	8769.99
570.62	8695.09
570.78	8634.24
570.95	8545.30
571.11	8678.71
571.27	8617.85
571.43	8847.22
571.60	8758.28
571.76	8723.18
571.92	8840.20
572.09	8997.02
572.25	8975.95
572.41	8919.78
572.57	9018.08
572.74	8924.46
572.90	9057.87
573.06	8870.63
573.22	8945.53
573.38	9001.70
573.55	8982.98
573.71	8999.36
573.87	8875.31
574.03	8826.16
574.20	8879.99
574.36	8636.58
574.52	8903.40
574.68	8697.43
574.84	8568.70
575.01	8451.67
575.17	8475.08
575.33	8510.19
575.49	8608.49
575.65	8657.64
575.82	8484.44
575.98	8245.71
576.14	8739.56
576.30	8596.79
576.46	8985.32
576.62	9114.05
576.79	8999.36
576.95	8975.95
577.11	8826.16
577.27	8905.74
577.43	8915.10
577.59	8645.94
577.75	8585.08
577.92	8542.96
578.08	8329.97
578.24	8299.54
578.40	8557.00
578.56	8746.58
578.72	8990.00
578.88	9263.84
579.04	9046.17
579.21	8816.80
579.37	8720.84
579.53	8549.98
579.69	8854.25
579.85	8786.37
580.01	8786.37
580.17	8823.82
580.33	8512.53
580.49	8587.43
580.65	8781.69
580.82	8809.78
580.98	8734.88
581.14	8772.33
581.30	8830.84
581.46	8711.47
581.62	8683.39
581.78	8767.65
581.94	8854.25
582.10	8915.10
582.26	8875.31
582.42	9097.66
582.58	8854.25
582.74	8837.86
582.90	8875.31
583.06	8622.53
583.22	8971.27
583.38	8992.34
583.54	8781.69
583.70	8699.77
583.86	8786.37
584.02	8943.19
584.18	8826.16
584.34	8887.01
584.50	8889.35
584.66	8622.53
584.82	8697.43
584.98	8601.47
585.14	8493.80
585.30	8482.10
585.46	8355.71
585.62	8205.92
585.78	8166.13
585.94	8105.28
586.10	8325.29
586.26	8463.38
586.42	8451.67
586.58	8475.08
586.74	8573.38
586.90	8435.29
587.06	8538.27
587.22	8566.36
587.38	8166.13
587.54	8098.25
587.70	8074.85
587.86	7770.58
588.02	7456.95
588.18	7386.73
588.34	6916.28
588.49	6469.24
588.65	6083.05
588.81	6066.67
588.97	6085.39
589.13	6001.13
589.29	6101.78
589.45	5820.91
589.61	6186.04
589.77	6335.83
589.93	6614.35
590.08	6967.77
590.24	6977.14
590.40	7194.81
590.56	7077.78
590.72	6977.14
590.88	6991.18
591.04	6967.77
591.20	7002.88
591.35	7063.74
591.51	6927.99
591.67	6897.56
591.83	6792.23
591.99	6848.41
592.15	6860.11
592.31	7105.87
592.46	7279.07
592.62	7314.17
592.78	7658.23
592.94	7421.84
593.10	7442.90
593.26	7459.29
593.41	7639.51
593.57	7344.60
593.73	7248.64
593.89	6897.56
594.05	6825.00
594.20	6537.12
594.36	6445.84
594.52	6349.87
594.68	6452.86
594.84	6745.42
594.99	6867.13
595.15	6862.45
595.31	7035.65
595.47	7049.69
595.62	6998.20
595.78	7208.85
595.94	7360.98
596.10	7295.45
596.25	7269.70
596.41	7152.68
596.57	6932.67
596.73	6799.26
596.88	7033.31
597.04	7470.99
597.20	7192.47
597.36	7169.06
597.51	6909.26
597.67	7080.12
597.83	7215.87
597.99	7297.79
598.14	7279.07
598.30	7140.97
598.46	7152.68
598.61	7382.05
598.77	7342.26
598.93	7190.13
599.09	7428.86
599.24	7543.55
599.40	7566.95
599.56	7398.43
599.71	7557.59
599.87	7503.76
600.03	7346.94
600.18	7269.70
600.34	7325.88
600.50	7309.49
600.65	7316.51
600.81	7562.27
600.97	7620.78
601.12	7328.22
601.28	7353.96
601.44	7232.26
601.59	7492.05
601.75	7180.76
601.91	7384.39
602.06	7269.70
602.22	7288.43
602.37	7239.28
602.53	7426.52
602.69	7456.95
602.84	7431.20
603.00	7473.33
603.16	7456.95
603.31	7543.55
603.47	7466.31
603.62	7478.01
603.78	7538.87
603.94	7487.37
604.09	7330.56
604.25	7688.66
604.40	7421.84
604.56	7386.73
604.71	7527.16
604.87	7573.97
605.03	7468.65
605.18	7456.95
605.34	7438.22
605.49	7356.30
605.65	7487.37
605.80	7384.39
605.96	7463.97
606.12	7489.71
606.27	7508.44
606.43	7325.88
606.58	7466.31
606.74	7618.44
606.89	7384.39
607.05	7396.09
607.20	7452.27
607.36	7255.66
607.51	7379.71
607.67	7405.46
607.82	7314.17
607.98	7169.06
608.13	7283.75
608.29	7187.79
608.44	7101.19
608.60	7417.16
608.75	7452.27
608.91	7386.73
609.06	7194.81
609.22	7517.80
609.37	7225.23
609.53	7494.40
609.68	7417.16
609.84	7286.09
609.99	7489.71
610.15	7581.00
610.30	7995.27
610.46	8145.06
610.61	8425.93
610.76	8999.36
610.92	9420.66
611.07	9860.68
611.23	9767.06
611.38	9797.48
611.54	9392.57
611.69	8975.95
611.84	8369.76
612.00	8304.22
612.15	7810.37
612.31	7868.88
612.46	7578.65
612.62	7637.17
612.77	7749.51
612.92	7524.82
613.08	7494.40
613.23	7325.88
613.39	7206.51
613.54	7162.04
613.69	7234.60
613.85	7241.62
614.00	7012.24
614.15	7281.41
614.31	7169.06
614.46	7272.04
614.62	7255.66
614.77	7133.95
614.92	7101.19
615.08	7232.26
615.23	6988.84
615.38	6897.56
615.54	6705.63
615.69	6691.59
615.84	6593.29
616.00	6422.43
616.15	6284.34
616.30	6413.07
616.46	6562.86
616.61	6399.02
616.76	6502.01
616.92	6520.73
617.07	6731.38
617.22	6656.48
617.37	6532.44
617.53	6579.25
617.68	6565.20
617.83	6614.35
617.99	6619.04
618.14	6731.38
618.29	6628.40
618.45	6590.95
618.60	6602.65
618.75	6422.43
618.90	6207.10
619.06	6555.84
619.21	6506.69
619.36	6661.16
619.51	6607.33
619.67	6544.14
619.82	6457.54
619.97	6443.49
620.12	6565.20
620.28	6389.66
620.43	6492.65
620.58	6665.85
620.73	6476.26
620.89	6368.60
621.04	6270.30
621.19	6420.09
621.34	6389.66
621.49	6155.61
621.65	6279.66
621.80	6324.13
621.95	6108.80
622.10	6272.64
622.25	6317.11
622.41	6361.58
622.56	6176.67
622.71	6183.70
622.86	6207.10
623.01	6094.76
623.16	6120.50
623.32	6167.31
623.47	6146.25
623.62	6118.16
623.77	6141.57
623.92	6230.51
624.07	5942.62
624.23	5881.77
624.38	5898.15
624.53	5790.49
624.68	6071.35
624.83	6071.35
624.98	5935.60
625.13	5724.95
625.29	5771.76
625.44	5682.82
625.59	5851.34
625.74	5797.51
625.89	5900.49
626.04	5757.72
626.19	5837.30
626.34	5900.49
626.49	5694.52
626.65	5687.50
626.80	5738.99
626.95	5757.72
627.10	5771.76
627.25	5598.56
627.40	5458.13
627.55	5256.84
627.70	5100.03
627.85	5060.24
628.00	5116.41
628.15	5282.59
628.30	5413.66
628.45	5540.05
628.60	5392.59
628.76	5514.30
628.91	5430.04
629.06	5516.64
629.21	5544.73
629.36	5390.25
629.51	5268.55
629.66	5313.02
629.81	5427.70
629.96	5345.78
630.11	5488.56
630.26	5518.98
630.41	5729.63
630.56	5612.60
630.71	5600.90
630.86	5483.88
631.01	5486.22
631.16	5453.45
631.31	5352.81
631.46	5329.40
631.61	5025.13
631.76	5249.82
631.91	5116.41
632.06	5240.46
632.21	5085.98
632.36	5301.31
632.51	5345.78
632.66	5500.26
632.81	5399.62
632.96	5341.10
633.10	5317.70
633.25	5430.04
633.40	5261.52
633.55	5266.21
633.70	5179.61
633.85	5177.26
634.00	5067.26
634.15	5181.95
634.30	5252.16
634.45	5298.97
634.60	5181.95
634.75	5163.22
634.90	5233.44
635.05	5275.57
635.19	5310.68
635.34	5207.69
635.49	5289.61
635.64	5256.84
635.79	5027.47
635.94	4999.38
636.09	5027.47
636.24	5078.96
636.39	5013.43
636.53	5284.93
636.68	5144.50
636.83	5163.22
636.98	5280.25
637.13	5294.29
637.28	5191.31
637.43	5125.77
637.57	5303.65
637.72	5376.21
637.87	5200.67
638.02	5219.39
638.17	5130.45
638.32	5308.34
638.46	5259.18
638.61	5249.82
638.76	5104.71
638.91	5179.61
639.06	5093.01
639.20	5027.47
639.35	5064.92
639.50	5048.54
639.65	4938.53
639.80	4975.98
639.94	5043.85
640.09	5064.92
640.24	5006.41
640.39	5076.62
640.54	4770.01
640.68	4884.70
640.83	4777.03
640.98	4835.55
641.13	4884.70
641.27	4954.91
641.42	4870.65
641.57	4851.93
641.72	4961.94
641.86	4968.96
642.01	4868.31
642.16	4968.96
642.31	4784.06
642.45	5093.01
642.60	4943.21
642.75	4877.68
642.90	4858.95
643.04	4856.61
643.19	4943.21
643.34	4994.70
643.48	4791.08
643.63	4779.37
643.78	4800.44
643.93	4891.72
644.07	4807.46
644.22	4786.40
644.37	4751.29
644.51	4683.41
644.66	4615.54
644.81	4657.67
644.95	4718.52
645.10	4512.55
645.25	4601.49
645.39	4608.51
645.54	4491.49
645.69	4482.13
645.83	4458.72
645.98	4440.00
646.13	4353.40
646.27	4215.30
646.42	4182.54
646.57	4241.05
646.71	4224.67
646.86	4166.15
647.00	4074.87
647.15	4128.70
647.30	3817.41
647.44	3831.46
647.59	3955.51
647.74	3868.91
647.88	3845.50
648.03	3927.42
648.17	3927.42
648.32	3906.35
648.47	3911.04
648.61	3999.98
648.76	3936.78
648.90	3915.72
649.05	3962.53
649.20	3847.84
649.34	3822.09
649.49	3850.18
649.63	4067.85
649.78	4184.88
649.92	4156.79
650.07	4428.29
650.21	4381.48
650.36	4550.00
650.51	4568.73
650.65	4489.15
650.80	4379.14
650.94	4271.48
651.09	4032.74
651.23	3948.48
651.38	3737.84
651.52	3648.90
651.67	3812.73
651.81	3887.63
651.96	3988.27
652.10	3978.91
652.25	4161.47
652.39	4264.46
652.54	4381.48
652.68	4266.80
652.83	4184.88
652.97	4208.28
653.12	3941.46
653.26	3999.98
653.41	4194.24
653.55	4053.81
653.70	4140.41
653.84	4255.09
653.99	4182.54
654.13	4007.00
654.27	4084.23
654.42	3866.56
654.56	4035.08
654.71	3920.40
654.85	3974.23
655.00	3904.01
655.14	3925.08
655.29	3770.60
655.43	3744.86
655.57	3899.33
655.72	3548.25
655.86	3269.73
656.01	3206.53
656.15	2977.16
656.30	3122.27
656.44	3267.39
656.58	3286.11
656.73	3583.36
656.87	3597.40
657.01	3763.58
657.16	3768.26
657.30	3726.13
657.45	3875.93
657.59	3866.56
657.73	4079.55
657.88	4016.36
658.02	4105.30
658.16	3964.87
658.31	3885.29
658.45	3943.80
658.60	3932.10
658.74	3974.23
658.88	4004.66
659.03	3992.95
659.17	3918.06
659.31	3927.42
659.46	3992.95
659.60	3981.25
659.74	3990.61
659.89	3957.85
660.03	4117.00
660.17	4102.96
660.32	4112.32
660.46	3889.97
660.60	4063.17
660.74	4114.66
660.89	4002.32
661.03	3936.78
661.17	4025.72
661.32	4004.66
661.46	4058.49
661.60	3967.21
661.74	4032.74
661.89	4124.02
662.03	4135.73
662.17	4077.21
662.31	4112.32
662.46	4119.34
662.60	4023.38
662.74	3927.42
662.88	3985.93
663.03	3983.59
663.17	3775.28
663.31	3936.78
663.45	3728.47
663.60	3726.13
663.74	3852.52
663.88	3819.75
664.02	3794.01
664.17	3751.88
664.31	3852.52
664.45	3878.27
664.59	3899.33
664.73	3896.99
664.88	3840.82
665.02	3803.37
665.16	3852.52
665.30	3838.48
665.44	3904.01
665.59	3964.87
665.73	3896.99
665.87	3831.46
666.01	3864.22
666.15	3644.21
666.29	3751.88
666.44	3896.99
666.58	3871.25
666.72	3742.52
666.86	3716.77
667.00	3866.56
667.14	3709.75
667.28	3669.96
667.43	3618.47
667.57	3698.05
667.71	3620.81
667.85	3679.32
667.99	3653.58
668.13	3756.56
668.27	3784.65
668.41	3667.62
668.56	3592.72
668.70	3552.93
668.84	3728.47
668.98	3637.19
669.12	3529.53
669.26	3712.09
669.40	3620.81
669.54	3485.06
669.68	3637.19
669.82	3543.57
669.96	3534.21
670.10	3527.19
670.25	3672.30
670.39	3566.98
670.53	3482.72
670.67	3538.89
670.81	3489.74
670.95	3480.38
671.09	3569.32
671.23	3531.87
671.37	3536.55
671.51	3377.39
671.65	3431.23
671.79	3480.38
671.93	3461.65
672.07	3426.54
672.21	3375.05
672.35	3365.69
672.49	3396.12
672.63	3438.25
672.77	3576.34
672.91	3281.43
673.05	3398.46
673.19	3475.70
673.33	3293.13
673.47	3412.50
673.61	3328.24
673.75	3330.58
673.89	3281.43
674.03	3412.50
674.17	3335.26
674.31	3251.00
674.45	3227.60
674.59	3288.45
674.73	3276.75
674.87	3307.18
675.01	3300.16
675.15	3283.77
675.29	3183.13
675.43	3307.18
675.56	3332.92
675.70	3267.39
675.84	3262.71
675.98	3290.79
676.12	3166.74
676.26	3356.33
676.40	3171.43
676.54	3112.91
676.68	3019.29
676.82	2970.14
676.96	3091.85
677.10	3199.51
677.23	3038.02
677.37	3096.53
677.51	2984.18
677.65	3052.06
677.79	3070.78
677.93	3108.23
678.07	3056.74
678.21	3063.76
678.34	3030.99
678.48	3019.29
678.62	2963.12
678.76	3023.97
678.90	3021.63
679.04	3026.31
679.18	2963.12
679.31	2860.13
679.45	3012.27
679.59	2913.97
679.73	2843.75
679.87	2937.37
680.00	2883.54
680.14	2834.39
680.28	2869.50
680.42	2906.95
680.56	2862.48
680.70	2832.05
680.83	2813.32
680.97	2726.72
681.11	2766.51
681.25	2754.81
681.39	2848.43
681.52	2785.24
681.66	2750.13
681.80	2836.73
681.94	2621.40
682.07	2708.00
682.21	2815.66
682.35	2689.28
682.49	2612.04
682.62	2663.53
682.76	2691.62
682.90	2628.42
683.04	2693.96
683.17	2576.93
683.31	2705.66
683.45	2612.04
683.59	2693.96
683.72	2544.16
683.86	2665.87
684.00	2450.54
684.13	2516.08
684.27	2588.63
684.41	2541.82
684.55	2532.46
684.68	2518.42
684.82	2576.93
684.96	2516.08
685.09	2518.42
685.23	2462.24
685.37	2438.84
685.50	2569.91
685.64	2548.84
685.78	2495.01
685.91	2424.80
686.05	2417.77
686.19	2349.90
686.32	2370.96
686.46	2141.59
686.60	1774.13
686.73	1661.78
686.87	1516.67
687.01	1355.17
687.14	1373.89
687.28	1324.74
687.42	1448.79
687.55	1533.05
687.69	1638.38
687.82	1797.53
687.96	1849.02
688.10	1970.73
688.23	2097.12
688.37	1975.41
688.50	1900.52
688.64	1907.54
688.78	1739.02
688.91	1720.29
689.05	1837.32
689.18	1729.66
689.32	1739.02
689.46	1739.02
689.59	1806.89
689.73	1806.89
689.86	1715.61
690.00	1820.94
690.13	1764.76
690.27	1785.83
690.41	1846.68
690.54	1764.76
690.68	1781.15
690.81	1923.92
690.95	1956.69
691.08	1767.10
691.22	1839.66
691.35	1806.89
691.49	1820.94
691.62	1912.22
691.76	1727.32
691.89	1746.04
692.03	1755.40
692.16	1579.86
692.30	1710.93
692.43	1689.87
692.57	1652.42
692.70	1715.61
692.84	1652.42
692.97	1540.07
693.11	1521.35
693.24	1556.46
693.38	1556.46
693.51	1582.20
693.65	1556.46
693.78	1451.13
693.92	1444.11
694.05	1434.75
694.19	1369.21
694.32	1425.39
694.45	1486.24
694.59	1549.43
694.72	1355.17
694.86	1479.22
694.99	1511.99
695.13	1434.75
695.26	1483.90
695.39	1540.07
695.53	1444.11
695.66	1399.64
695.80	1430.07
695.93	1476.88
696.07	1519.01
696.20	1558.80
696.33	1563.48
696.47	1607.95
696.60	1638.38
696.73	1696.89
696.87	1591.56
697.00	1638.38
697.14	1614.97
697.27	1537.73
697.40	1673.48
697.54	1514.33
697.67	1640.72
697.80	1596.25
697.94	1565.82
698.07	1547.09
698.21	1364.53
698.34	1533.05
698.47	1474.54
698.61	1392.62
698.74	1479.22
698.87	1387.94
699.01	1329.42
699.14	1277.93
699.27	1306.02
699.40	1444.11
699.54	1306.02
699.67	1371.55
699.80	1331.76
699.94	1373.89
700.07	1303.68
700.20	1130.48
700.34	1196.01
700.47	1205.38
700.60	1224.10
700.73	1228.78
700.87	1273.25
701.00	1315.38
701.13	1226.44
701.26	1329.42
701.40	1245.16
701.53	1282.61
701.66	1245.16
701.79	1245.16
701.93	1266.23
702.06	1277.93
702.19	1254.53
702.32	1198.35
702.46	1128.14
702.59	1196.01
702.72	1137.50
702.85	1198.35
702.99	1259.21
703.12	1359.85
703.25	1289.64
703.38	1350.49
703.51	1352.83
703.65	1284.95
703.78	1266.23
703.91	1203.04
704.04	1095.37
704.17	1238.14
704.31	1200.69
704.44	1240.48
704.57	1259.21
704.70	1322.40
704.83	1343.47
704.96	1170.27
705.10	1186.65
705.23	1160.91
>>>>>End Processed Spectral Data<<<<<
