SpectraSuite Data File
++++++++++++++++++++++++++++++++++++
Date: Fri Oct 04 11:44:16 GMT-05:00 2013
User: price-jones
Dark Spectrum Present: No
Reference Spectrum Present: No
Number of Sampled Component Spectra: 1
Spectrometers: USB2+H05261
Integration Time (usec): 100000 (USB2+H05261)
Spectra Averaged: 1 (USB2+H05261)
Boxcar Smoothing: 0 (USB2+H05261)
Correct for Electrical Dark: No (USB2+H05261)
Strobe/Lamp Enabled: No (USB2+H05261)
Correct for Detector Non-linearity: No (USB2+H05261)
Correct for Stray Light: No (USB2+H05261)
Number of Pixels in Processed Spectrum: 2048
>>>>>Begin Processed Spectral Data<<<<<
365.73	11.70
365.92	11.70
366.12	11.70
366.32	0.00
366.52	0.00
366.72	0.00
366.91	0.00
367.11	0.00
367.31	0.00
367.51	0.00
367.70	0.00
367.90	0.00
368.10	0.00
368.30	0.00
368.49	0.00
368.69	0.00
368.89	0.00
369.09	0.00
369.28	0.00
369.48	0.00
369.68	0.00
369.87	0.00
370.07	0.00
370.27	32.77
370.47	126.39
370.66	320.65
370.86	428.32
371.06	496.19
371.25	400.23
371.45	440.02
371.65	428.32
371.84	402.57
372.04	407.25
372.24	472.79
372.44	512.58
372.63	500.87
372.83	484.49
373.03	482.15
373.22	402.57
373.42	411.93
373.62	444.70
373.81	482.15
374.01	554.71
374.21	528.96
374.40	409.59
374.60	468.11
374.79	498.53
374.99	514.92
375.19	615.56
375.38	557.05
375.58	557.05
375.78	578.11
375.97	475.13
376.17	624.92
376.37	587.47
376.56	599.18
376.76	594.50
376.95	557.05
377.15	695.14
377.35	706.84
377.54	777.06
377.74	716.20
377.93	826.21
378.13	727.91
378.33	692.80
378.52	613.22
378.72	599.18
378.91	624.92
379.11	575.77
379.31	517.26
379.50	482.15
379.70	657.69
379.89	690.46
380.09	699.82
380.28	653.01
380.48	713.86
380.68	638.97
380.87	643.65
381.07	606.20
381.26	561.73
381.46	578.11
381.65	559.39
381.85	559.39
382.04	454.06
382.24	603.86
382.43	535.98
382.63	451.72
382.83	482.15
383.02	463.43
383.22	470.45
383.41	395.55
383.61	435.34
383.80	554.71
384.00	606.20
384.19	645.99
384.39	711.52
384.58	582.79
384.78	746.63
384.97	667.05
385.17	627.26
385.36	594.50
385.56	592.16
385.75	650.67
385.95	662.37
386.14	723.23
386.34	568.75
386.53	713.86
386.72	699.82
386.92	716.20
387.11	671.73
387.31	692.80
387.50	692.80
387.70	617.90
387.89	643.65
388.09	610.88
388.28	671.73
388.48	692.80
388.67	723.23
388.86	713.86
389.06	833.23
389.25	840.25
389.45	851.96
389.64	889.40
389.84	954.94
390.03	894.08
390.22	823.87
390.42	788.76
390.61	901.11
390.81	957.28
391.00	931.53
391.19	1029.84
391.39	959.62
391.58	903.45
391.78	842.59
391.97	847.27
392.16	765.36
392.36	744.29
392.55	631.94
392.75	479.81
392.94	472.79
393.13	475.13
393.33	559.39
393.52	622.58
393.71	791.10
393.91	737.27
394.10	819.19
394.29	950.26
394.49	917.49
394.68	966.64
394.88	1074.31
395.07	1015.79
395.26	1013.45
395.46	1029.84
395.65	917.49
395.84	844.93
396.04	772.38
396.23	603.86
396.42	571.09
396.62	535.98
396.81	627.26
397.00	746.63
397.19	990.05
397.39	896.43
397.58	1102.39
397.77	1174.95
397.97	1177.29
398.16	1221.76
398.35	1256.87
398.55	1313.04
398.74	1378.58
398.93	1472.20
399.12	1371.55
399.32	1301.34
399.51	1350.49
399.70	1406.66
399.90	1366.87
400.09	1369.21
400.28	1472.20
400.47	1406.66
400.67	1409.00
400.86	1537.73
401.05	1547.09
401.24	1540.07
401.44	1483.90
401.63	1483.90
401.82	1605.61
402.01	1467.52
402.21	1427.73
402.40	1558.80
402.59	1437.09
402.78	1453.47
402.97	1352.83
403.17	1430.07
403.36	1444.11
403.55	1568.16
403.74	1558.80
403.93	1577.52
404.13	1596.25
404.32	1554.12
404.51	1577.52
404.70	1617.31
404.89	1570.50
405.09	1556.46
405.28	1511.99
405.47	1479.22
405.66	1411.34
405.85	1474.54
406.05	1336.45
406.24	1366.87
406.43	1490.92
406.62	1577.52
406.81	1500.28
407.00	1502.62
407.20	1486.24
407.39	1593.90
407.58	1664.12
407.77	1542.41
407.96	1647.74
408.15	1619.65
408.34	1650.08
408.54	1659.44
408.73	1629.01
408.92	1645.40
409.11	1600.93
409.30	1600.93
409.49	1455.81
409.68	1448.79
409.87	1320.06
410.07	1579.86
410.26	1605.61
410.45	1563.48
410.64	1689.87
410.83	1694.55
411.02	1722.63
411.21	1872.43
411.40	1860.73
411.59	1687.53
411.78	1842.00
411.98	1732.00
412.17	1753.06
412.36	1809.23
412.55	1753.06
412.74	1746.04
412.93	1783.49
413.12	1717.95
413.31	1802.21
413.50	1891.15
413.69	1877.11
413.88	1874.77
414.07	1792.85
414.26	1860.73
414.45	1923.92
414.64	1849.02
414.83	1792.85
415.02	1839.66
415.22	1973.07
415.41	1919.24
415.60	1879.45
415.79	1975.41
415.98	1954.35
416.17	1982.43
416.36	2017.54
416.55	1956.69
416.74	1844.34
416.93	1870.09
417.12	1881.79
417.31	1760.08
417.50	1813.92
417.69	2010.52
417.88	1919.24
418.07	1865.41
418.26	1830.30
418.45	1867.75
418.64	1933.28
418.83	2040.95
419.02	1914.56
419.21	1959.03
419.39	1977.75
419.58	1722.63
419.77	1771.79
419.96	1933.28
420.15	2064.35
420.34	2083.08
420.53	2146.27
420.72	2214.15
420.91	2115.84
421.10	2136.91
421.29	2207.13
421.48	2045.63
421.67	2148.61
421.86	1994.14
422.05	1863.07
422.24	1776.47
422.43	1797.53
422.61	1956.69
422.80	2066.69
422.99	2071.37
423.18	1877.11
423.37	2097.12
423.56	1998.82
423.75	1963.71
423.94	2033.93
424.13	1940.30
424.32	1919.24
424.50	1930.94
424.69	1914.56
424.88	2026.90
425.07	1818.60
425.26	1977.75
425.45	1933.28
425.64	1820.94
425.83	1912.22
426.01	2071.37
426.20	1973.07
426.39	1947.33
426.58	1813.92
426.77	1760.08
426.96	1703.91
427.15	1783.49
427.33	1769.44
427.52	1907.54
427.71	2005.84
427.90	1886.47
428.09	1846.68
428.28	1842.00
428.46	1844.34
428.65	1774.13
428.84	1849.02
429.03	1827.96
429.22	1732.00
429.40	1753.06
429.59	1570.50
429.78	1451.13
429.97	1336.45
430.16	1430.07
430.34	1378.58
430.53	1416.02
430.72	1418.36
430.91	1610.29
431.10	1724.97
431.28	2029.24
431.47	2239.89
431.66	2279.68
431.85	2090.10
432.03	1902.86
432.22	1891.15
432.41	1949.67
432.60	2118.18
432.79	2188.40
432.97	2214.15
433.16	2174.36
433.35	1994.14
433.54	1769.44
433.72	1776.47
433.91	1851.36
434.10	1923.92
434.28	2146.27
434.47	2146.27
434.66	2122.87
434.85	2097.12
435.03	2284.36
435.22	2551.18
435.41	3087.17
435.59	3138.66
435.78	2946.73
435.97	2590.97
436.16	2485.65
436.34	2314.79
436.53	2333.51
436.72	2174.36
436.90	2139.25
437.09	2083.08
437.28	2223.51
437.46	2157.97
437.65	2258.62
437.84	2029.24
438.02	1839.66
438.21	1907.54
438.40	2022.22
438.58	2125.21
438.77	2216.49
438.96	2162.66
439.14	2232.87
439.33	2228.19
439.52	2305.43
439.70	2221.17
439.89	2251.60
440.08	2331.17
440.26	2162.66
440.45	2207.13
440.63	2504.37
440.82	2380.32
441.01	2443.52
441.19	2445.86
441.38	2551.18
441.57	2595.65
441.75	2609.70
441.94	2752.47
442.12	2532.46
442.31	2633.10
442.50	2483.31
442.68	2497.35
442.87	2513.74
443.05	2434.16
443.24	2569.91
443.43	2661.19
443.61	2729.06
443.80	2621.40
443.98	2548.84
444.17	2502.03
444.35	2717.36
444.54	2705.66
444.73	2747.79
444.91	2588.63
445.10	2562.89
445.28	2373.30
445.47	2354.58
445.65	2413.09
445.84	2452.88
446.02	2502.03
446.21	2392.03
446.39	2593.31
446.58	2574.59
446.77	2567.57
446.95	2621.40
447.14	2787.58
447.32	2818.00
447.51	2717.36
447.69	2602.68
447.88	2745.45
448.06	2656.51
448.25	2710.34
448.43	2640.12
448.62	2595.65
448.80	2691.62
448.99	2780.56
449.17	2686.94
449.36	2722.04
449.54	2796.94
449.73	2787.58
449.91	2750.13
450.10	2904.60
450.28	2832.05
450.46	3012.27
450.65	2923.33
450.83	2888.22
451.02	2766.51
451.20	2745.45
451.39	2778.22
451.57	2895.24
451.76	2860.13
451.94	2773.53
452.13	2853.11
452.31	2752.47
452.49	2537.14
452.68	2590.97
452.86	2450.54
453.05	2513.74
453.23	2637.78
453.42	2633.10
453.60	2759.49
453.78	2871.84
453.97	2799.28
454.15	2794.60
454.34	2630.76
454.52	2813.32
454.70	2764.17
454.89	2789.92
455.07	2745.45
455.26	2822.69
455.44	2855.45
455.62	2832.05
455.81	2977.16
455.99	2930.35
456.17	2862.48
456.36	2785.24
456.54	2878.86
456.73	3028.65
456.91	3033.33
457.09	2815.66
457.28	3016.95
457.46	2965.46
457.64	2988.86
457.83	2876.52
458.01	2722.04
458.19	2792.26
458.38	2841.41
458.56	2930.35
458.74	2953.76
458.93	2754.81
459.11	2801.62
459.29	2822.69
459.48	2857.79
459.66	2822.69
459.84	2733.75
460.03	2888.22
460.21	2925.67
460.39	3009.93
460.57	2935.03
460.76	2867.16
460.94	2935.03
461.12	2930.35
461.31	3049.72
461.49	2972.48
461.67	3000.57
461.85	3016.95
462.04	2993.55
462.22	3431.23
462.40	2977.16
462.59	3012.27
462.77	2909.29
462.95	2993.55
463.13	2928.01
463.32	2892.90
463.50	3030.99
463.68	2946.73
463.86	2998.23
464.05	2920.99
464.23	2951.42
464.41	2963.12
464.59	2825.03
464.78	2909.29
464.96	2911.63
465.14	2764.17
465.32	3098.87
465.50	3035.67
465.69	3096.53
465.87	3005.25
466.05	2883.54
466.23	2846.09
466.41	2614.38
466.60	2843.75
466.78	2806.30
466.96	2932.69
467.14	2911.63
467.32	2993.55
467.51	2813.32
467.69	2803.96
467.87	2972.48
468.05	2913.97
468.23	2956.10
468.41	2981.84
468.60	2920.99
468.78	3005.25
468.96	2998.23
469.14	2963.12
469.32	2855.45
469.50	2881.20
469.69	2885.88
469.87	2738.43
470.05	2733.75
470.23	2960.78
470.41	2860.13
470.59	2942.05
470.77	2822.69
470.95	2923.33
471.14	3009.93
471.32	3075.46
471.50	3091.85
471.68	3136.32
471.86	3070.78
472.04	3045.04
472.22	3162.06
472.40	3019.29
472.58	3042.70
472.77	3009.93
472.95	3028.65
473.13	3054.40
473.31	3103.55
473.49	3030.99
473.67	3138.66
473.85	3066.10
474.03	3180.79
474.21	3159.72
474.39	3190.15
474.57	3344.63
474.75	3349.31
474.93	3211.22
475.12	3049.72
475.30	3201.85
475.48	3075.46
475.66	2995.89
475.84	3042.70
476.02	3211.22
476.20	3148.02
476.38	3157.38
476.56	3272.07
476.74	3377.39
476.92	3206.53
477.10	3328.24
477.28	3337.60
477.46	3438.25
477.64	3384.41
477.82	3435.91
478.00	3405.48
478.18	3475.70
478.36	3262.71
478.54	3435.91
478.72	3351.65
478.90	3410.16
479.08	3548.25
479.26	3684.00
479.44	3592.72
479.62	3660.60
479.80	3620.81
479.98	3662.94
480.16	3564.64
480.34	3566.98
480.52	3669.96
480.70	3714.43
480.88	3742.52
481.06	3789.33
481.24	3775.28
481.41	3896.99
481.59	3873.59
481.77	3850.18
481.95	3768.26
482.13	3747.20
482.31	4053.81
482.49	3960.19
482.67	4060.83
482.85	4016.36
483.03	3929.76
483.21	3997.64
483.39	3929.76
483.57	3866.56
483.74	4067.85
483.92	3929.76
484.10	4039.76
484.28	4138.07
484.46	4168.49
484.64	4088.92
484.82	4149.77
485.00	4065.51
485.18	3857.20
485.35	3943.80
485.53	3684.00
485.71	3314.20
485.89	3229.94
486.07	3414.84
486.25	3779.97
486.43	3829.12
486.61	4079.55
486.78	3875.93
486.96	3925.08
487.14	4049.13
487.32	4100.62
487.50	4276.16
487.68	4463.40
487.85	4468.08
488.03	4369.78
488.21	4409.57
488.39	4362.76
488.57	4353.40
488.75	4266.80
488.92	4545.32
489.10	4610.86
489.28	4751.29
489.46	4826.18
489.64	4880.02
489.81	4922.15
489.99	4858.95
490.17	4809.80
490.35	5011.09
490.53	4938.53
490.70	4638.94
490.88	4746.61
491.06	4868.31
491.24	4833.21
491.41	4758.31
491.59	4493.83
491.77	4451.70
491.95	4444.68
492.13	4631.92
492.30	4908.10
492.48	4952.57
492.66	5011.09
492.84	4863.63
493.01	5085.98
493.19	4868.31
493.37	4807.46
493.54	4737.24
493.72	4868.31
493.90	5060.24
494.08	5261.52
494.25	5432.38
494.43	5451.11
494.61	5373.87
494.79	5411.32
494.96	5472.17
495.14	5270.89
495.32	5153.86
495.49	5046.20
495.67	5247.48
495.85	5434.72
496.02	5334.08
496.20	5294.29
496.38	5394.93
496.55	5331.74
496.73	5390.25
496.91	5509.62
497.09	5511.96
497.26	5509.62
497.44	5404.30
497.62	5284.93
497.79	5359.83
497.97	5135.14
498.14	5088.32
498.32	5338.76
498.50	5327.06
498.67	5579.84
498.85	5425.36
499.03	5430.04
499.20	5675.80
499.38	5556.43
499.56	5453.45
499.73	5657.07
499.91	5369.19
500.08	5198.33
500.26	5254.50
500.44	5357.49
500.61	5336.42
500.79	5369.19
500.97	5156.20
501.14	5160.88
501.32	5057.90
501.49	5245.14
501.67	5160.88
501.84	5296.63
502.02	5245.14
502.20	5369.19
502.37	5387.91
502.55	5233.44
502.72	5549.41
502.90	5355.15
503.07	5273.23
503.25	5212.37
503.43	5041.51
503.60	4901.08
503.78	4980.66
503.95	4931.51
504.13	5142.16
504.30	5455.79
504.48	5507.28
504.65	5345.78
504.83	5359.83
505.01	5624.31
505.18	5753.04
505.36	5582.18
505.53	5764.74
505.71	5661.76
505.88	5937.94
506.06	5547.07
506.23	5727.29
506.41	5439.40
506.58	5497.92
506.76	5507.28
506.93	5518.98
507.11	5746.02
507.28	5626.65
507.46	5355.15
507.63	5273.23
507.81	5441.75
507.98	5460.47
508.16	5441.75
508.33	5481.53
508.50	5582.18
508.68	5799.85
508.85	5816.23
509.03	5802.19
509.20	5867.72
509.38	5561.11
509.55	5497.92
509.73	5575.16
509.90	5771.76
510.08	5717.93
510.25	5600.90
510.42	5643.03
510.60	5631.33
510.77	5774.10
510.95	5865.38
511.12	5877.09
511.30	6038.58
511.47	6024.54
511.64	5963.68
511.82	6066.67
511.99	5806.87
512.17	5650.05
512.34	5511.96
512.51	5699.20
512.69	5703.89
512.86	5923.90
513.04	5717.93
513.21	5898.15
513.38	5694.52
513.56	5638.35
513.73	5387.91
513.90	5565.79
514.08	5504.94
514.25	5666.44
514.43	5661.76
514.60	5633.67
514.77	5607.92
514.95	5703.89
515.12	5706.23
515.29	5799.85
515.47	5921.56
515.64	5886.45
515.81	5617.29
515.99	5659.42
516.16	5448.77
516.33	5135.14
516.51	4767.67
516.68	4676.39
516.85	4627.24
517.03	4613.20
517.20	4966.62
517.37	5444.09
517.54	5865.38
517.72	5799.85
517.89	5355.15
518.06	4826.18
518.24	4931.51
518.41	5275.57
518.58	5441.75
518.75	5540.05
518.93	5533.03
519.10	5509.62
519.27	5612.60
519.45	5645.37
519.62	5769.42
519.79	5717.93
519.96	5762.40
520.14	5685.16
520.31	5706.23
520.48	5476.85
520.65	5458.13
520.83	5846.66
521.00	5827.93
521.17	5872.40
521.34	5776.44
521.52	5806.87
521.69	6113.48
521.86	6038.58
522.03	5799.85
522.20	5647.71
522.38	5404.30
522.55	5523.66
522.72	5610.26
522.89	5614.95
523.07	5605.58
523.24	5792.83
523.41	5998.79
523.58	5795.17
523.75	5963.68
523.92	5975.39
524.10	6104.12
524.27	6239.87
524.44	6017.52
524.61	5926.24
524.78	5820.91
524.96	5783.46
525.13	5863.04
525.30	5912.19
525.47	5919.21
525.64	5942.62
525.81	6017.52
525.98	5612.60
526.16	5315.36
526.33	5294.29
526.50	5188.97
526.67	5109.39
526.84	5174.92
527.01	5408.98
527.18	5455.79
527.36	5685.16
527.53	5781.12
527.70	6047.94
527.87	5802.19
528.04	5668.78
528.21	5762.40
528.38	6087.73
528.55	6113.48
528.72	6239.87
528.89	6324.13
529.07	6146.25
529.24	5949.64
529.41	5933.26
529.58	5621.97
529.75	5755.38
529.92	5813.89
530.09	5907.51
530.26	6057.31
530.43	6195.40
530.60	5916.87
530.77	5949.64
530.94	6076.03
531.11	6045.60
531.28	5996.45
531.46	5792.83
531.63	5951.98
531.80	5942.62
531.97	5748.36
532.14	5727.29
532.31	5668.78
532.48	5537.71
532.65	5362.17
532.82	5671.12
532.99	5830.27
533.16	5802.19
533.33	6099.44
533.50	5991.77
533.67	5783.46
533.84	5671.12
534.01	5933.26
534.18	5818.57
534.35	5867.72
534.52	5774.10
534.69	5771.76
534.86	5977.73
535.03	5886.45
535.20	6022.20
535.37	6174.33
535.54	6113.48
535.71	6141.57
535.88	6040.92
536.05	6057.31
536.22	5902.83
536.38	5790.49
536.55	5657.07
536.72	5607.92
536.89	5631.33
537.06	5685.16
537.23	6005.81
537.40	5914.53
537.57	6029.22
537.74	6080.71
537.91	5877.09
538.08	5806.87
538.25	5961.34
538.42	5921.56
538.59	5935.60
538.75	5781.12
538.92	5839.64
539.09	6029.22
539.26	5692.18
539.43	5661.76
539.60	5825.59
539.77	5886.45
539.94	5886.45
540.11	5762.40
540.28	5708.57
540.44	5802.19
540.61	5760.06
540.78	6061.99
540.95	6228.17
541.12	6277.32
541.29	6223.48
541.46	6539.46
541.62	6551.16
541.79	6473.92
541.96	6286.68
542.13	6333.49
542.30	6392.00
542.47	6312.42
542.63	6221.14
542.80	6249.23
542.97	6076.03
543.14	6101.78
543.31	6083.05
543.48	6179.01
543.64	6370.94
543.81	6384.98
543.98	6429.45
544.15	6399.02
544.32	6162.63
544.48	6349.87
544.65	6157.95
544.82	6406.05
544.99	6244.55
545.16	6438.81
545.32	6211.78
545.49	6935.01
545.66	7538.87
545.83	8065.49
546.00	7892.29
546.16	7059.06
546.33	6649.46
546.50	6223.48
546.67	6235.19
546.83	6108.80
547.00	6251.57
547.17	6057.31
547.34	5867.72
547.50	5790.49
547.67	5916.87
547.84	5746.02
548.00	5841.98
548.17	6076.03
548.34	6076.03
548.51	6043.26
548.67	5907.51
548.84	6012.84
549.01	5923.90
549.18	5881.77
549.34	5963.68
549.51	6047.94
549.68	5970.71
549.84	5844.32
550.01	5626.65
550.18	5844.32
550.34	5685.16
550.51	5624.31
550.68	5792.83
550.84	5816.23
551.01	5530.69
551.18	5483.88
551.34	5797.51
551.51	5675.80
551.68	5757.72
551.84	5832.62
552.01	5771.76
552.18	5600.90
552.34	5610.26
552.51	5631.33
552.68	5570.48
552.84	5628.99
553.01	5563.45
553.18	5516.64
553.34	5614.95
553.51	5790.49
553.67	5607.92
553.84	5699.20
554.01	5713.25
554.17	5544.73
554.34	5643.03
554.51	5626.65
554.67	5680.48
554.84	5713.25
555.00	5558.77
555.17	5504.94
555.33	5696.86
555.50	5383.23
555.67	5411.32
555.83	5277.91
556.00	5558.77
556.16	5526.00
556.33	5448.77
556.50	5518.98
556.66	5507.28
556.83	5348.12
556.99	5408.98
557.16	5483.88
557.32	5284.93
557.49	5261.52
557.65	5390.25
557.82	5320.04
557.98	5619.63
558.15	5212.37
558.32	5191.31
558.48	5121.09
558.65	5160.88
558.81	5055.56
558.98	5107.05
559.14	5167.90
559.31	5259.18
559.47	5371.53
559.64	5121.09
559.80	5090.67
559.97	5022.79
560.13	5055.56
560.30	5305.99
560.46	5252.16
560.63	5446.43
560.79	5399.62
560.96	5331.74
561.12	5268.55
561.29	5128.11
561.45	5004.07
561.61	5135.14
561.78	5322.38
561.94	5083.64
562.11	5109.39
562.27	5287.27
562.44	5228.76
562.60	5270.89
562.77	5184.29
562.93	5418.34
563.10	5263.86
563.26	5387.91
563.42	5238.12
563.59	5153.86
563.75	5254.50
563.92	5139.82
564.08	5041.51
564.24	5207.69
564.41	5221.74
564.57	5055.56
564.74	5343.44
564.90	5284.93
565.07	5186.63
565.23	5097.69
565.39	4912.78
565.56	4812.14
565.72	4894.06
565.88	4819.16
566.05	4795.76
566.21	4858.95
566.38	4858.95
566.54	4926.83
566.70	5090.67
566.87	5093.01
567.03	5107.05
567.19	5102.37
567.36	5071.94
567.52	4823.84
567.68	4940.87
567.85	4851.93
568.01	4709.16
568.17	4610.86
568.34	4643.62
568.50	4634.26
568.66	4395.53
568.83	4795.76
568.99	4667.03
569.15	4723.20
569.32	4713.84
569.48	4784.06
569.64	4500.85
569.81	4730.22
569.97	4711.50
570.13	4683.41
570.30	4540.64
570.46	4589.79
570.62	4538.30
570.78	4318.29
570.95	4451.70
571.11	4514.89
571.27	4638.94
571.43	4690.43
571.60	4580.43
571.76	4512.55
571.92	4770.01
572.09	4655.33
572.25	4748.95
572.41	4638.94
572.57	4683.41
572.74	4617.88
572.90	4660.01
573.06	4699.80
573.22	4688.09
573.38	4669.37
573.55	4709.16
573.71	4695.11
573.87	4704.48
574.03	4655.33
574.20	4531.28
574.36	4655.33
574.52	4531.28
574.68	4547.66
574.84	4566.39
575.01	4337.01
575.17	4418.93
575.33	4477.44
575.49	4456.38
575.65	4442.34
575.82	4395.53
575.98	4470.42
576.14	4475.10
576.30	4486.81
576.46	4812.14
576.62	4975.98
576.79	4898.74
576.95	4985.34
577.11	4770.01
577.27	4636.60
577.43	4716.18
577.59	4514.89
577.75	4381.48
577.92	4379.14
578.08	4339.35
578.24	4332.33
578.40	4498.51
578.56	4645.96
578.72	4887.04
578.88	4898.74
579.04	4807.46
579.21	4641.28
579.37	4688.09
579.53	4606.17
579.69	4594.47
579.85	4414.25
580.01	4627.24
580.17	4603.83
580.33	4418.93
580.49	4692.77
580.65	4545.32
580.82	4510.21
580.98	4430.63
581.14	4587.45
581.30	4723.20
581.46	4582.77
581.62	4566.39
581.78	4599.15
581.94	4580.43
582.10	4617.88
582.26	4891.72
582.42	4542.98
582.58	4770.01
582.74	4652.98
582.90	4847.25
583.06	4603.83
583.22	4697.46
583.38	4725.54
583.54	4638.94
583.70	4554.68
583.86	4674.05
584.02	4690.43
584.18	4816.82
584.34	4662.35
584.50	4678.73
584.66	4437.66
584.82	4545.32
584.98	4458.72
585.14	4667.03
585.30	4292.54
585.46	4297.22
585.62	4376.80
585.78	4418.93
585.94	4440.00
586.10	4360.42
586.26	4388.50
586.42	4458.72
586.58	4533.62
586.74	4428.29
586.90	4676.39
587.06	4514.89
587.22	4580.43
587.38	4505.53
587.54	4255.09
587.70	4248.07
587.86	4007.00
588.02	4004.66
588.18	3768.26
588.34	3557.61
588.49	3337.60
588.65	3225.26
588.81	3262.71
588.97	3197.17
589.13	3213.56
589.29	3068.44
589.45	3225.26
589.61	3309.52
589.77	3335.26
589.93	3503.78
590.08	3536.55
590.24	3660.60
590.40	3756.56
590.56	3796.35
590.72	3524.85
590.88	3611.45
591.04	3644.21
591.20	3838.48
591.35	3482.72
591.51	3478.04
591.67	3562.30
591.83	3625.49
591.99	3611.45
592.15	3613.79
592.31	3815.07
592.46	3955.51
592.62	3957.85
592.78	3955.51
592.94	3964.87
593.10	3845.50
593.26	4011.68
593.41	4032.74
593.57	3852.52
593.73	3749.54
593.89	3691.02
594.05	3557.61
594.20	3194.83
594.36	3382.07
594.52	3414.84
594.68	3302.50
594.84	3478.04
594.99	3723.79
595.15	3702.73
595.31	3705.07
595.47	3669.96
595.62	3639.53
595.78	3662.94
595.94	3782.31
596.10	3896.99
596.25	3791.67
596.41	3627.83
596.57	3590.38
596.73	3777.62
596.88	3840.82
597.04	3889.97
597.20	3833.80
597.36	3735.50
597.51	3578.68
597.67	3660.60
597.83	3864.22
597.99	3864.22
598.14	3770.60
598.30	3880.61
598.46	3852.52
598.61	3852.52
598.77	3817.41
598.93	3882.95
599.09	4028.06
599.24	3854.86
599.40	3929.76
599.56	3772.94
599.71	4037.42
599.87	3981.25
600.03	4018.70
600.18	3852.52
600.34	3826.78
600.50	3859.54
600.65	3892.31
600.81	3964.87
600.97	3929.76
601.12	3927.42
601.28	3791.67
601.44	3819.75
601.59	3749.54
601.75	3946.14
601.91	3768.26
602.06	3815.07
602.22	3761.24
602.37	3936.78
602.53	3868.91
602.69	3915.72
602.84	3836.14
603.00	3756.56
603.16	3932.10
603.31	4100.62
603.47	4072.53
603.62	3843.16
603.78	3992.95
603.94	3911.04
604.09	3948.48
604.25	3964.87
604.40	3868.91
604.56	3829.12
604.71	3871.25
604.87	4105.30
605.03	3850.18
605.18	4009.34
605.34	3812.73
605.49	3859.54
605.65	3964.87
605.80	3901.67
605.96	3927.42
606.12	3882.95
606.27	3948.48
606.43	3836.14
606.58	3826.78
606.74	3794.01
606.89	3925.08
607.05	4035.08
607.20	3854.86
607.36	3873.59
607.51	3850.18
607.67	3829.12
607.82	3618.47
607.98	3894.65
608.13	3805.71
608.29	3939.12
608.44	3927.42
608.60	3901.67
608.75	4056.15
608.91	3934.44
609.06	4060.83
609.22	4072.53
609.37	3941.46
609.53	4128.70
609.68	4030.40
609.84	3960.19
609.99	4119.34
610.15	4152.11
610.30	4498.51
610.46	4730.22
610.61	4896.40
610.76	5373.87
610.92	5488.56
611.07	5912.19
611.23	6200.08
611.38	5872.40
611.54	5654.73
611.69	5301.31
611.84	4985.34
612.00	4582.77
612.15	4463.40
612.31	4311.27
612.46	4236.37
612.62	4262.12
612.77	4241.05
612.92	4259.78
613.08	4175.52
613.23	4067.85
613.39	3824.44
613.54	3768.26
613.69	3803.37
613.85	3936.78
614.00	3777.62
614.15	3922.74
614.31	3934.44
614.46	3962.53
614.62	3822.09
614.77	4021.04
614.92	3852.52
615.08	3864.22
615.23	3801.03
615.38	3679.32
615.54	3740.18
615.69	3454.63
615.84	3531.87
616.00	3499.10
616.15	3463.99
616.30	3492.08
616.46	3454.63
616.61	3456.97
616.76	3384.41
616.92	3482.72
617.07	3330.58
617.22	3407.82
617.37	3393.78
617.53	3499.10
617.68	3536.55
617.83	3496.76
617.99	3459.31
618.14	3400.80
618.29	3534.21
618.45	3400.80
618.60	3463.99
618.75	3300.16
618.90	3197.17
619.06	3487.40
619.21	3400.80
619.36	3389.10
619.51	3267.39
619.67	3185.47
619.82	3403.14
619.97	3449.95
620.12	3445.27
620.28	3426.54
620.43	3552.93
620.58	3473.36
620.73	3435.91
620.89	3442.93
621.04	3379.73
621.19	3332.92
621.34	3215.90
621.49	3279.09
621.65	3225.26
621.80	3225.26
621.95	3180.79
622.10	3363.35
622.25	3274.41
622.41	3330.58
622.56	3276.75
622.71	3286.11
622.86	3232.28
623.01	3215.90
623.16	3246.32
623.32	3325.90
623.47	3208.87
623.62	3192.49
623.77	3236.96
623.92	3185.47
624.07	3077.80
624.23	3007.59
624.38	3098.87
624.53	3129.30
624.68	3122.27
624.83	3166.74
624.98	3105.89
625.13	2960.78
625.29	3084.83
625.44	3007.59
625.59	3002.91
625.74	3084.83
625.89	3021.63
626.04	3052.06
626.19	3045.04
626.34	3108.23
626.49	3164.40
626.65	3155.04
626.80	3012.27
626.95	3068.44
627.10	2984.18
627.25	2888.22
627.40	2808.64
627.55	2829.71
627.70	2712.68
627.85	2715.02
628.00	2672.89
628.15	2773.53
628.30	2855.45
628.45	2843.75
628.60	2841.41
628.76	2874.18
628.91	2778.22
629.06	2963.12
629.21	2778.22
629.36	2944.39
629.51	2722.04
629.66	2733.75
629.81	2801.62
629.96	2799.28
630.11	2883.54
630.26	2956.10
630.41	2904.60
630.56	2909.29
630.71	2951.42
630.86	3030.99
631.01	3115.25
631.16	2972.48
631.31	2888.22
631.46	2906.95
631.61	2693.96
631.76	2759.49
631.91	2635.44
632.06	2729.06
632.21	2710.34
632.36	2771.19
632.51	2782.90
632.66	2747.79
632.81	2789.92
632.96	2803.96
633.10	2700.98
633.25	2768.85
633.40	2740.77
633.55	2778.22
633.70	2679.91
633.85	2759.49
634.00	2630.76
634.15	2700.98
634.30	2705.66
634.45	2782.90
634.60	2864.82
634.75	2752.47
634.90	2796.94
635.05	2806.30
635.19	2803.96
635.34	2693.96
635.49	2675.23
635.64	2689.28
635.79	2717.36
635.94	2710.34
636.09	2691.62
636.24	2628.42
636.39	2623.74
636.53	2715.02
636.68	2719.70
636.83	2710.34
636.98	2672.89
637.13	2803.96
637.28	2820.35
637.43	2766.51
637.57	2775.88
637.72	2743.11
637.87	2754.81
638.02	2658.85
638.17	2857.79
638.32	2670.55
638.46	2768.85
638.61	2778.22
638.76	2672.89
638.91	2612.04
639.06	2663.53
639.20	2637.78
639.35	2708.00
639.50	2562.89
639.65	2607.36
639.80	2569.91
639.94	2450.54
640.09	2635.44
640.24	2588.63
640.39	2513.74
640.54	2569.91
640.68	2588.63
640.83	2572.25
640.98	2487.99
641.13	2553.52
641.27	2600.34
641.42	2583.95
641.57	2476.29
641.72	2567.57
641.86	2551.18
642.01	2466.92
642.16	2675.23
642.31	2551.18
642.45	2504.37
642.60	2597.99
642.75	2502.03
642.90	2576.93
643.04	2518.42
643.19	2462.24
643.34	2490.33
643.48	2525.44
643.63	2518.42
643.78	2509.05
643.93	2668.21
644.07	2417.77
644.22	2590.97
644.37	2450.54
644.51	2511.39
644.66	2480.97
644.81	2478.63
644.95	2548.84
645.10	2380.32
645.25	2333.51
645.39	2410.75
645.54	2347.56
645.69	2373.30
645.83	2235.21
645.98	2307.77
646.13	2307.77
646.27	2298.41
646.42	2216.49
646.57	2172.02
646.71	2115.84
646.86	2092.44
647.00	2148.61
647.15	2078.40
647.30	1994.14
647.44	1968.39
647.59	1959.03
647.74	2054.99
647.88	2050.31
648.03	2099.46
648.17	2113.50
648.32	2036.27
648.47	1994.14
648.61	2038.61
648.76	2132.23
648.90	2033.93
649.05	2022.22
649.20	2026.90
649.34	2031.58
649.49	2050.31
649.63	2038.61
649.78	2150.95
649.92	2183.72
650.07	2249.25
650.21	2242.23
650.36	2349.90
650.51	2370.96
650.65	2260.96
650.80	2331.17
650.94	2251.60
651.09	2106.48
651.23	2045.63
651.38	1952.01
651.52	1919.24
651.67	1872.43
651.81	2092.44
651.96	2099.46
652.10	2045.63
652.25	2057.33
652.39	2204.78
652.54	2214.15
652.68	2101.80
652.83	2200.10
652.97	2188.40
653.12	2291.38
653.26	2181.38
653.41	2073.71
653.55	2214.15
653.70	2172.02
653.84	2303.09
653.99	2104.14
654.13	2062.01
654.27	1982.43
654.42	1996.48
654.56	2097.12
654.71	2022.22
654.85	2104.14
655.00	2043.29
655.14	1975.41
655.29	1902.86
655.43	2024.56
655.57	1900.52
655.72	1788.17
655.86	1708.59
656.01	1504.96
656.15	1535.39
656.30	1636.03
656.44	1760.08
656.58	1706.25
656.73	1842.00
656.87	1926.26
657.01	1907.54
657.16	1893.49
657.30	2064.35
657.45	2115.84
657.59	1989.46
657.73	2047.97
657.88	2066.69
658.02	2111.16
658.16	2153.29
658.31	2022.22
658.45	2040.95
658.60	2015.20
658.74	2101.80
658.88	1982.43
659.03	2040.95
659.17	2033.93
659.31	2015.20
659.46	2092.44
659.60	1980.09
659.74	2179.04
659.89	2148.61
660.03	2188.40
660.17	2153.29
660.32	2062.01
660.46	2076.06
660.60	2125.21
660.74	2090.10
660.89	2092.44
661.03	1940.30
661.17	2097.12
661.32	1966.05
661.46	2085.42
661.60	2008.18
661.74	2141.59
661.89	2242.23
662.03	2094.78
662.17	2064.35
662.31	1975.41
662.46	2080.74
662.60	2099.46
662.74	2031.58
662.88	2057.33
663.03	1928.60
663.17	2026.90
663.31	1970.73
663.45	1989.46
663.60	2052.65
663.74	1912.22
663.88	1956.69
664.02	2001.16
664.17	2019.88
664.31	1902.86
664.45	2057.33
664.59	2001.16
664.73	1984.77
664.88	1984.77
665.02	2010.52
665.16	1891.15
665.30	2017.54
665.44	1865.41
665.59	1984.77
665.73	1982.43
665.87	1984.77
666.01	2012.86
666.15	2024.56
666.29	1898.17
666.44	1916.90
666.58	1947.33
666.72	1886.47
666.86	1884.13
667.00	1959.03
667.14	1937.96
667.28	2012.86
667.43	1853.70
667.57	1905.20
667.71	1842.00
667.85	2024.56
667.99	1921.58
668.13	1902.86
668.27	1944.99
668.41	1853.70
668.56	1802.21
668.70	1902.86
668.84	1877.11
668.98	1923.92
669.12	1872.43
669.26	1952.01
669.40	1900.52
669.54	1900.52
669.68	1919.24
669.82	1809.23
669.96	1944.99
670.10	1844.34
670.25	1762.42
670.39	1799.87
670.53	1741.36
670.67	1825.62
670.81	1888.81
670.95	1825.62
671.09	1797.53
671.23	1788.17
671.37	1914.56
671.51	1820.94
671.65	1785.83
671.79	1797.53
671.93	1776.47
672.07	1722.63
672.21	1757.74
672.35	1776.47
672.49	1750.72
672.63	1881.79
672.77	1797.53
672.91	1724.97
673.05	1736.68
673.19	1778.81
673.33	1722.63
673.47	1792.85
673.61	1741.36
673.75	1689.87
673.89	1650.08
674.03	1654.76
674.17	1703.91
674.31	1629.01
674.45	1720.29
674.59	1706.25
674.73	1692.21
674.87	1732.00
675.01	1657.10
675.15	1582.20
675.29	1834.98
675.43	1753.06
675.56	1703.91
675.70	1617.31
675.84	1659.44
675.98	1680.50
676.12	1717.95
676.26	1724.97
676.40	1551.78
676.54	1710.93
676.68	1636.03
676.82	1605.61
676.96	1577.52
677.10	1717.95
677.23	1659.44
677.37	1568.16
677.51	1547.09
677.65	1668.80
677.79	1664.12
677.93	1600.93
678.07	1533.05
678.21	1607.95
678.34	1596.25
678.48	1598.59
678.62	1558.80
678.76	1516.67
678.90	1521.35
679.04	1586.88
679.18	1563.48
679.31	1474.54
679.45	1582.20
679.59	1605.61
679.73	1472.20
679.87	1448.79
680.00	1502.62
680.14	1472.20
680.28	1446.45
680.42	1462.83
680.56	1500.28
680.70	1462.83
680.83	1427.73
680.97	1476.88
681.11	1418.36
681.25	1556.46
681.39	1416.02
681.52	1446.45
681.66	1418.36
681.80	1390.28
681.94	1467.52
682.07	1444.11
682.21	1446.45
682.35	1507.30
682.49	1327.08
682.62	1483.90
682.76	1406.66
682.90	1320.06
683.04	1357.51
683.17	1446.45
683.31	1371.55
683.45	1465.18
683.59	1385.60
683.72	1380.92
683.86	1301.34
684.00	1291.98
684.13	1359.85
684.27	1380.92
684.41	1364.53
684.55	1280.27
684.68	1320.06
684.82	1261.55
684.96	1177.29
685.09	1289.64
685.23	1284.95
685.37	1256.87
685.50	1203.04
685.64	1247.51
685.78	1217.08
685.91	1301.34
686.05	1233.46
686.19	1263.89
686.32	1142.18
686.46	1067.28
686.60	1008.77
686.73	875.36
686.87	844.93
687.01	814.51
687.14	716.20
687.28	730.25
687.42	770.04
687.55	809.83
687.69	901.11
687.82	980.68
687.96	966.64
688.10	1015.79
688.23	1013.45
688.37	1086.01
688.50	922.17
688.64	922.17
688.78	964.30
688.91	973.66
689.05	868.34
689.18	896.43
689.32	1001.75
689.46	964.30
689.59	931.53
689.73	950.26
689.86	957.28
690.00	954.94
690.13	983.02
690.27	943.24
690.41	931.53
690.54	973.66
690.68	877.70
690.81	966.64
690.95	947.92
691.08	990.05
691.22	880.04
691.35	959.62
691.49	947.92
691.62	880.04
691.76	938.55
691.89	987.71
692.03	959.62
692.16	840.25
692.30	889.40
692.43	833.23
692.57	849.61
692.70	842.59
692.84	849.61
692.97	763.01
693.11	763.01
693.24	840.25
693.38	826.21
693.51	830.89
693.65	734.93
693.78	718.54
693.92	781.74
694.05	772.38
694.19	741.95
694.32	807.48
694.45	819.19
694.59	718.54
694.72	767.70
694.86	730.25
694.99	779.40
695.13	805.14
695.26	819.19
695.39	821.53
695.53	875.36
695.66	774.72
695.80	795.78
695.93	816.85
696.07	898.77
696.20	828.55
696.33	772.38
696.47	861.32
696.60	781.74
696.73	915.15
696.87	854.30
697.00	936.21
697.14	835.57
697.27	847.27
697.40	887.06
697.54	814.51
697.67	791.10
697.80	800.46
697.94	788.76
698.07	774.72
698.21	800.46
698.34	828.55
698.47	837.91
698.61	718.54
698.74	755.99
698.87	667.05
699.01	734.93
699.14	685.78
699.27	758.33
699.40	898.77
699.54	699.82
699.67	655.35
699.80	695.14
699.94	746.63
700.07	606.20
700.20	580.45
700.34	702.16
700.47	702.16
700.60	622.58
700.73	702.16
700.87	653.01
701.00	645.99
701.13	557.05
701.26	713.86
701.40	685.78
701.53	643.65
701.66	613.22
701.79	561.73
701.93	608.54
702.06	716.20
702.19	657.69
702.32	669.39
702.46	650.67
702.59	650.67
702.72	594.50
702.85	683.44
702.99	643.65
703.12	744.29
703.25	692.80
703.38	603.86
703.51	704.50
703.65	627.26
703.78	688.12
703.91	578.11
704.04	685.78
704.17	613.22
704.31	709.18
704.44	627.26
704.57	655.35
704.70	645.99
704.83	559.39
704.96	655.35
705.10	655.35
705.23	657.69
>>>>>End Processed Spectral Data<<<<<
