SpectraSuite Data File
++++++++++++++++++++++++++++++++++++
Date: Fri Oct 04 11:44:24 GMT-05:00 2013
User: price-jones
Dark Spectrum Present: No
Reference Spectrum Present: No
Number of Sampled Component Spectra: 1
Spectrometers: USB2+H05261
Integration Time (usec): 100000 (USB2+H05261)
Spectra Averaged: 1 (USB2+H05261)
Boxcar Smoothing: 0 (USB2+H05261)
Correct for Electrical Dark: No (USB2+H05261)
Strobe/Lamp Enabled: No (USB2+H05261)
Correct for Detector Non-linearity: No (USB2+H05261)
Correct for Stray Light: No (USB2+H05261)
Number of Pixels in Processed Spectrum: 2048
>>>>>Begin Processed Spectral Data<<<<<
365.73	25.75
365.92	25.75
366.12	25.75
366.32	0.00
366.52	0.00
366.72	0.00
366.91	0.00
367.11	0.00
367.31	0.00
367.51	0.00
367.70	0.00
367.90	0.00
368.10	0.00
368.30	0.00
368.49	0.00
368.69	0.00
368.89	0.00
369.09	0.00
369.28	4.68
369.48	0.00
369.68	0.00
369.87	0.00
370.07	0.00
370.27	0.00
370.47	140.43
370.66	486.83
370.86	533.64
371.06	744.29
371.25	629.60
371.45	561.73
371.65	594.50
371.84	517.26
372.04	660.03
372.24	596.84
372.44	599.18
372.63	650.67
372.83	690.46
373.03	636.63
373.22	552.37
373.42	610.88
373.62	709.18
373.81	713.86
374.01	734.93
374.21	648.33
374.40	622.58
374.60	660.03
374.79	720.88
374.99	800.46
375.19	842.59
375.38	844.93
375.58	875.36
375.78	798.12
375.97	800.46
376.17	858.98
376.37	784.08
376.56	823.87
376.76	812.17
376.95	842.59
377.15	938.55
377.35	954.94
377.54	945.58
377.74	1036.86
377.93	994.73
378.13	987.71
378.33	1015.79
378.52	999.41
378.72	933.87
378.91	840.25
379.11	767.70
379.31	830.89
379.50	835.57
379.70	968.98
379.89	959.62
380.09	884.72
380.28	1011.11
380.48	938.55
380.68	990.05
380.87	915.15
381.07	856.64
381.26	985.37
381.46	863.66
381.65	800.46
381.85	765.36
382.04	627.26
382.24	671.73
382.43	601.52
382.63	608.54
382.83	669.39
383.02	634.29
383.22	697.48
383.41	674.07
383.61	723.23
383.80	788.76
384.00	887.06
384.19	915.15
384.39	924.51
384.58	992.39
384.78	973.66
384.97	898.77
385.17	924.51
385.36	858.98
385.56	887.06
385.75	961.96
385.95	945.58
386.14	837.91
386.34	1088.35
386.53	1004.09
386.72	957.28
386.92	938.55
387.11	1057.92
387.31	1013.45
387.50	943.24
387.70	1029.84
387.89	945.58
388.09	973.66
388.28	880.04
388.48	997.07
388.67	971.32
388.86	1167.93
389.06	1097.71
389.25	1186.65
389.45	1174.95
389.64	1200.69
389.84	1235.80
390.03	1210.06
390.22	1188.99
390.42	1245.16
390.61	1343.47
390.81	1362.19
391.00	1373.89
391.19	1455.81
391.39	1282.61
391.58	1280.27
391.78	1240.48
391.97	1191.33
392.16	1074.31
392.36	1029.84
392.55	931.53
392.75	657.69
392.94	638.97
393.13	589.82
393.33	655.35
393.52	814.51
393.71	1100.05
393.91	1050.90
394.10	1226.44
394.29	1193.67
394.49	1413.68
394.68	1355.17
394.88	1467.52
395.07	1610.29
395.26	1439.43
395.46	1444.11
395.65	1345.81
395.84	1181.97
396.04	1093.03
396.23	898.77
396.42	814.51
396.62	805.14
396.81	863.66
397.00	1093.03
397.19	1287.29
397.39	1432.41
397.58	1621.99
397.77	1659.44
397.97	1727.32
398.16	1825.62
398.35	1832.64
398.55	1813.92
398.74	1872.43
398.93	1987.11
399.12	1898.17
399.32	1842.00
399.51	1867.75
399.70	2040.95
399.90	2003.50
400.09	2012.86
400.28	1982.43
400.47	2076.06
400.67	2186.06
400.86	2188.40
401.05	2150.95
401.24	2242.23
401.44	2279.68
401.63	2162.66
401.82	2197.76
402.01	2223.51
402.21	2216.49
402.40	2223.51
402.59	2174.36
402.78	2132.23
402.97	1989.46
403.17	2078.40
403.36	2160.31
403.55	2270.32
403.74	2265.64
403.93	2256.28
404.13	2305.43
404.32	2216.49
404.51	2331.17
404.70	2473.95
404.89	2289.04
405.09	2338.20
405.28	2204.78
405.47	2036.27
405.66	2172.02
405.85	1998.82
406.05	2017.54
406.24	2050.31
406.43	2188.40
406.62	2263.30
406.81	2263.30
407.00	2214.15
407.20	2174.36
407.39	2036.27
407.58	2349.90
407.77	2305.43
407.96	2394.37
408.15	2445.86
408.34	2354.58
408.54	2459.90
408.73	2492.67
408.92	2504.37
409.11	2462.24
409.30	2167.34
409.49	2162.66
409.68	2043.29
409.87	2019.88
410.07	2010.52
410.26	2204.78
410.45	2263.30
410.64	2380.32
410.83	2445.86
411.02	2424.80
411.21	2628.42
411.40	2612.04
411.59	2523.10
411.78	2569.91
411.98	2502.03
412.17	2644.81
412.36	2626.08
412.55	2450.54
412.74	2420.11
412.93	2424.80
413.12	2532.46
413.31	2759.49
413.50	2747.79
413.69	2740.77
413.88	2661.19
414.07	2670.55
414.26	2586.29
414.45	2740.77
414.64	2764.17
414.83	2698.64
415.02	2731.41
415.22	2698.64
415.41	2752.47
415.60	2743.11
415.79	2928.01
415.98	2965.46
416.17	2836.73
416.36	2925.67
416.55	2839.07
416.74	2825.03
416.93	2647.15
417.12	2672.89
417.31	2754.81
417.50	2768.85
417.69	2916.31
417.88	2827.37
418.07	2876.52
418.26	2818.00
418.45	2703.32
418.64	2986.52
418.83	3070.78
419.02	3019.29
419.21	2920.99
419.39	2867.16
419.58	2700.98
419.77	2743.11
419.96	2705.66
420.15	3005.25
420.34	3150.36
420.53	3066.10
420.72	3098.87
420.91	3096.53
421.10	3101.21
421.29	2967.80
421.48	2972.48
421.67	3049.72
421.86	3005.25
422.05	2846.09
422.24	2581.61
422.43	2586.29
422.61	2782.90
422.80	2883.54
422.99	2902.26
423.18	2892.90
423.37	2822.69
423.56	3056.74
423.75	2888.22
423.94	2963.12
424.13	2705.66
424.32	2829.71
424.50	2810.98
424.69	2818.00
424.88	2906.95
425.07	2715.02
425.26	2794.60
425.45	2736.09
425.64	2712.68
425.83	2743.11
426.01	2822.69
426.20	2939.71
426.39	2883.54
426.58	2689.28
426.77	2539.48
426.96	2345.22
427.15	2504.37
427.33	2843.75
427.52	2832.05
427.71	2913.97
427.90	2820.35
428.09	2796.94
428.28	2740.77
428.46	2595.65
428.65	2595.65
428.84	2665.87
429.03	2679.91
429.22	2553.52
429.40	2317.13
429.59	2167.34
429.78	2069.03
429.97	1975.41
430.16	2019.88
430.34	2001.16
430.53	2036.27
430.72	2134.57
430.91	2303.09
431.10	2691.62
431.28	3026.31
431.47	3220.58
431.66	3199.51
431.85	3030.99
432.03	2754.81
432.22	2722.04
432.41	2853.11
432.60	2991.20
432.79	3089.51
432.97	3241.64
433.16	3094.19
433.35	2825.03
433.54	2782.90
433.72	2633.10
433.91	2651.83
434.10	2848.43
434.28	3082.49
434.47	3260.37
434.66	3157.38
434.85	3201.85
435.03	3269.73
435.22	3716.77
435.41	4643.62
435.59	4901.08
435.78	4601.49
435.97	4032.74
436.16	3669.96
436.34	3344.63
436.53	3323.56
436.72	3398.46
436.90	3155.04
437.09	3157.38
437.28	3115.25
437.46	3251.00
437.65	3267.39
437.84	3077.80
438.02	2906.95
438.21	2827.37
438.40	2930.35
438.58	3136.32
438.77	3105.89
438.96	3255.69
439.14	3290.79
439.33	3473.36
439.52	3471.01
439.70	3454.63
439.89	3363.35
440.08	3325.90
440.26	3241.64
440.45	3431.23
440.63	3541.23
440.82	3688.68
441.01	3709.75
441.19	3660.60
441.38	3691.02
441.57	3712.09
441.75	3868.91
441.94	3901.67
442.12	3775.28
442.31	3805.71
442.50	3843.16
442.68	3796.35
442.87	3698.05
443.05	3861.88
443.24	3784.65
443.43	3962.53
443.61	3936.78
443.80	3875.93
443.98	3810.39
444.17	3794.01
444.35	4011.68
444.54	4046.79
444.73	4021.04
444.91	3929.76
445.10	3655.92
445.28	3574.00
445.47	3513.14
445.65	3562.30
445.84	3756.56
446.02	3775.28
446.21	3854.86
446.39	3845.50
446.58	3894.65
446.77	3875.93
446.95	4072.53
447.14	4065.51
447.32	4198.92
447.51	4051.47
447.69	3885.29
447.88	4039.76
448.06	3915.72
448.25	3995.29
448.43	3960.19
448.62	3999.98
448.80	3962.53
448.99	3882.95
449.17	3950.82
449.36	3901.67
449.54	4007.00
449.73	4072.53
449.91	4149.77
450.10	4273.82
450.28	4273.82
450.46	4219.99
450.65	4358.08
450.83	4390.84
451.02	4212.96
451.20	4044.45
451.39	4236.37
451.57	4215.30
451.76	4187.22
451.94	4081.89
452.13	4173.18
452.31	3908.69
452.49	3660.60
452.68	3639.53
452.86	3744.86
453.05	3651.24
453.23	3913.38
453.42	3915.72
453.60	4152.11
453.78	4060.83
453.97	4117.00
454.15	4058.49
454.34	3964.87
454.52	4112.32
454.70	4014.02
454.89	3866.56
455.07	3904.01
455.26	4095.94
455.44	4198.92
455.62	4374.46
455.81	4215.30
455.99	4135.73
456.17	4189.56
456.36	4198.92
456.54	4266.80
456.73	4229.35
456.91	4393.19
457.09	4386.16
457.28	4414.25
457.46	4306.59
457.64	4416.59
457.83	4259.78
458.01	4088.92
458.19	4184.88
458.38	4217.65
458.56	4285.52
458.74	4163.81
458.93	4203.60
459.11	4109.98
459.29	4161.47
459.48	4294.88
459.66	4145.09
459.84	4117.00
460.03	4465.74
460.21	4575.75
460.39	4353.40
460.57	4505.53
460.76	4526.60
460.94	4421.27
461.12	4496.17
461.31	4414.25
461.49	4447.02
461.67	4510.21
461.85	4531.28
462.04	4496.17
462.22	4947.89
462.40	4482.13
462.59	4514.89
462.77	4575.75
462.95	4339.35
463.13	4519.57
463.32	4355.74
463.50	4245.73
463.68	4367.44
463.86	4383.82
464.05	4325.31
464.23	4194.24
464.41	4259.78
464.59	4161.47
464.78	4374.46
464.96	4264.46
465.14	4329.99
465.32	4311.27
465.50	4294.88
465.69	4386.16
465.87	4456.38
466.05	4421.27
466.23	4203.60
466.41	4147.43
466.60	4212.96
466.78	4229.35
466.96	4222.33
467.14	4229.35
467.32	4320.63
467.51	4451.70
467.69	4091.26
467.87	4369.78
468.05	4283.18
468.23	4397.87
468.41	4447.02
468.60	4351.06
468.78	4444.68
468.96	4276.16
469.14	4273.82
469.32	4334.67
469.50	4236.37
469.69	4262.12
469.87	4320.63
470.05	4140.41
470.23	4252.75
470.41	4168.49
470.59	4236.37
470.77	4156.79
470.95	4322.97
471.14	4313.61
471.32	4313.61
471.50	4557.02
471.68	4524.26
471.86	4753.63
472.04	4688.09
472.22	4688.09
472.40	4512.55
472.58	4409.57
472.77	4505.53
472.95	4407.23
473.13	4660.01
473.31	4456.38
473.49	4643.62
473.67	4636.60
473.85	4634.26
474.03	4631.92
474.21	4784.06
474.39	4875.34
474.57	4725.54
474.75	4849.59
474.93	4809.80
475.12	4610.86
475.30	4561.70
475.48	4739.58
475.66	4795.76
475.84	4645.96
476.02	4578.09
476.20	4638.94
476.38	4723.20
476.56	4744.27
476.74	4725.54
476.92	5008.75
477.10	5020.45
477.28	5174.92
477.46	5018.11
477.64	5121.09
477.82	5107.05
478.00	5224.08
478.18	5121.09
478.36	5018.11
478.54	5062.58
478.72	5100.03
478.90	5408.98
479.08	5238.12
479.26	5315.36
479.44	5425.36
479.62	5434.72
479.80	5329.40
479.98	5488.56
480.16	5352.81
480.34	5432.38
480.52	5430.04
480.70	5561.11
480.88	5458.13
481.06	5647.71
481.24	5769.42
481.41	5877.09
481.59	5879.43
481.77	5937.94
481.95	5628.99
482.13	5757.72
482.31	5703.89
482.49	5907.51
482.67	5898.15
482.85	5926.24
483.03	5940.28
483.21	6129.86
483.39	6024.54
483.57	5877.09
483.74	6059.65
483.92	6136.88
484.10	5977.73
484.28	6228.17
484.46	6171.99
484.64	6345.19
484.82	6169.65
485.00	6078.37
485.18	5916.87
485.35	5881.77
485.53	5352.81
485.71	4954.91
485.89	4833.21
486.07	5193.65
486.25	5479.19
486.43	5849.00
486.61	5827.93
486.78	5982.41
486.96	5963.68
487.14	6134.54
487.32	6333.49
487.50	6527.75
487.68	6565.20
487.85	6581.59
488.03	6862.45
488.21	6635.42
488.39	6626.06
488.57	6665.85
488.75	6303.06
488.92	6773.51
489.10	6920.96
489.28	7185.44
489.46	7330.56
489.64	7194.81
489.81	7311.83
489.99	7150.34
490.17	7351.62
490.35	7459.29
490.53	7178.42
490.70	7272.04
490.88	7208.85
491.06	7597.38
491.24	7466.31
491.41	7250.98
491.59	6951.39
491.77	6822.66
491.95	6890.54
492.13	7089.48
492.30	7276.73
492.48	7370.35
492.66	7632.49
492.84	7669.94
493.01	7613.76
493.19	7583.34
493.37	7360.98
493.54	7265.02
493.72	7449.93
493.90	7552.91
494.08	7962.50
494.25	7950.80
494.43	7864.20
494.61	8182.51
494.79	8194.22
494.96	8088.89
495.14	7786.96
495.32	7779.94
495.49	7674.62
495.67	7920.37
495.85	8292.52
496.02	8121.66
496.20	8142.72
496.38	8201.24
496.55	8084.21
496.73	8131.02
496.91	8521.89
497.09	8505.51
497.26	8372.10
497.44	8400.18
497.62	8039.74
497.79	7941.44
497.97	7609.08
498.14	7822.07
498.32	8021.02
498.50	8095.91
498.67	8414.23
498.85	8372.10
499.03	8428.27
499.20	8496.14
499.38	8313.58
499.56	8287.84
499.73	8484.44
499.91	8236.35
500.08	8074.85
500.26	7801.01
500.44	7702.70
500.61	8074.85
500.79	8191.88
500.97	7840.79
501.14	7693.34
501.32	7833.77
501.49	7777.60
501.67	7651.21
501.84	7901.65
502.02	8098.25
502.20	8145.06
502.37	8217.62
502.55	7934.42
502.72	8091.23
502.90	8400.18
503.07	8255.07
503.25	7859.52
503.43	7754.19
503.60	7438.22
503.78	7255.66
503.95	7564.61
504.13	7803.35
504.30	8301.88
504.48	8191.88
504.65	8191.88
504.83	8229.32
505.01	8549.98
505.18	8554.66
505.36	8477.42
505.53	8566.36
505.71	8746.58
505.88	8819.14
506.06	8664.66
506.23	8535.93
506.41	8215.28
506.58	8362.73
506.76	8339.33
506.93	8407.20
507.11	8336.99
507.28	8372.10
507.46	8102.93
507.63	8084.21
507.81	8161.45
507.98	8175.49
508.16	8166.13
508.33	8306.56
508.50	8454.02
508.68	8727.86
508.85	8861.27
509.03	8856.59
509.20	8851.91
509.38	8461.04
509.55	8386.14
509.73	8273.79
509.90	8557.00
510.08	8599.13
510.25	8592.11
510.42	8547.64
510.60	8482.10
510.77	8769.99
510.95	8725.52
511.12	8835.52
511.30	8844.88
511.47	9142.13
511.64	9142.13
511.82	8891.70
511.99	8819.14
512.17	8678.71
512.34	8332.31
512.51	8451.67
512.69	8496.14
512.86	8571.04
513.04	8620.19
513.21	8945.53
513.38	8659.98
513.56	8285.50
513.73	8301.88
513.90	8229.32
514.08	8315.92
514.25	8493.80
514.43	8641.26
514.60	8652.96
514.77	8411.89
514.95	8535.93
515.12	8383.80
515.29	8746.58
515.47	8788.71
515.64	8779.35
515.81	8659.98
515.99	8493.80
516.16	8264.43
516.33	7803.35
516.51	7386.73
516.68	7126.93
516.85	6876.49
517.03	7089.48
517.20	7555.25
517.37	8308.90
517.54	8795.73
517.72	8667.00
517.89	7777.60
518.06	7297.79
518.24	7328.22
518.41	7978.89
518.58	8138.04
518.75	8166.13
518.93	8461.04
519.10	8215.28
519.27	8517.21
519.45	8456.36
519.62	8816.80
519.79	8954.89
519.96	8854.25
520.14	8610.83
520.31	8564.02
520.48	8278.47
520.65	8493.80
520.83	8748.92
521.00	9104.68
521.17	8678.71
521.34	8620.19
521.52	8697.43
521.69	8943.19
521.86	9020.42
522.03	8952.55
522.20	8510.19
522.38	8334.65
522.55	8308.90
522.72	8571.04
522.89	8393.16
523.07	8482.10
523.24	8681.05
523.41	8919.78
523.58	9085.96
523.75	9076.60
523.92	8849.57
524.10	9071.92
524.27	8994.68
524.44	8980.64
524.61	9004.04
524.78	8842.54
524.96	8910.42
525.13	9006.38
525.30	8964.25
525.47	9235.75
525.64	9062.55
525.81	8915.10
525.98	8409.54
526.16	8042.08
526.33	7770.58
526.50	7709.72
526.67	7660.57
526.84	7686.32
527.01	7906.33
527.18	8283.16
527.36	8472.74
527.53	8676.37
527.70	8863.61
527.87	8823.82
528.04	8533.59
528.21	8493.80
528.38	8699.77
528.55	9132.77
528.72	9228.73
528.89	9284.91
529.07	9235.75
529.24	8964.25
529.41	8844.88
529.58	8599.13
529.75	8648.28
529.92	8887.01
530.09	8856.59
530.26	8950.21
530.43	9055.53
530.60	9284.91
530.77	9345.76
530.94	9245.12
531.11	9170.22
531.28	9050.85
531.46	8966.59
531.63	9221.71
531.80	8924.46
531.97	9165.54
532.14	8741.90
532.31	8362.73
532.48	8238.69
532.65	8109.96
532.82	8390.82
532.99	8788.71
533.16	8997.02
533.33	9160.86
533.50	9018.08
533.67	8657.64
533.84	8767.65
534.01	8732.54
534.18	8606.15
534.35	8833.18
534.52	8978.30
534.69	8858.93
534.86	8854.25
535.03	9004.04
535.20	8798.07
535.37	9170.22
535.54	9245.12
535.71	9125.75
535.88	9118.73
536.05	8760.63
536.22	9130.43
536.38	8769.99
536.55	8498.49
536.72	8374.44
536.89	8521.89
537.06	8446.99
537.23	8926.80
537.40	8863.61
537.57	9242.78
537.74	8980.64
537.91	8901.06
538.08	9137.45
538.25	9074.26
538.42	9088.30
538.59	8945.53
538.75	8926.80
538.92	8662.32
539.09	8676.37
539.26	8777.01
539.43	8678.71
539.60	8835.52
539.77	8997.02
539.94	8919.78
540.11	8667.00
540.28	8678.71
540.44	8713.81
540.61	8823.82
540.78	8854.25
540.95	9179.58
541.12	9551.73
541.29	9771.74
541.46	9806.84
541.62	9954.30
541.79	9771.74
541.96	9846.63
542.13	9818.55
542.30	9530.66
542.47	9610.24
542.63	9469.81
542.80	9331.72
542.97	9448.74
543.14	9247.46
543.31	9153.84
543.48	9523.64
543.64	9825.57
543.81	9788.12
543.98	9699.18
544.15	9551.73
544.32	9408.95
544.48	9462.79
544.65	9502.58
544.82	9600.88
544.99	9549.39
545.16	9434.70
545.32	9380.87
545.49	10286.65
545.66	11536.50
545.83	12741.88
546.00	12084.19
546.16	10710.29
546.33	9958.98
546.50	9516.62
546.67	9617.26
546.83	9338.74
547.00	9273.20
547.17	9004.04
547.34	8800.41
547.50	8887.01
547.67	8854.25
547.84	8732.54
548.00	9020.42
548.17	9041.49
548.34	9100.00
548.51	9095.32
548.67	8929.14
548.84	9053.19
549.01	9027.45
549.18	9163.20
549.34	8999.36
549.51	8652.96
549.68	8957.23
549.84	8903.40
550.01	8732.54
550.18	8727.86
550.34	8620.19
550.51	8840.20
550.68	8805.10
550.84	8723.18
551.01	8393.16
551.18	8578.06
551.34	8547.64
551.51	8585.08
551.68	8699.77
551.84	8706.79
552.01	8699.77
552.18	8648.28
552.34	8404.86
552.51	8222.30
552.68	8215.28
552.84	8147.40
553.01	8388.48
553.18	8411.89
553.34	8379.12
553.51	8486.78
553.67	8524.23
553.84	8638.92
554.01	8496.14
554.17	8386.14
554.34	8512.53
554.51	8439.97
554.67	8517.21
554.84	8542.96
555.00	8404.86
555.17	8355.71
555.33	8252.73
555.50	8177.83
555.67	8463.38
555.83	8191.88
556.00	8070.17
556.16	8400.18
556.33	8205.92
556.50	8084.21
556.66	7960.16
556.83	7915.69
556.99	8100.59
557.16	7829.09
557.32	7953.14
557.49	8119.32
557.65	8152.09
557.82	8035.06
557.98	8262.09
558.15	8079.53
558.32	7866.54
558.48	7529.50
558.65	7646.53
558.81	7653.55
558.98	7681.64
559.14	7789.30
559.31	7758.88
559.47	7922.71
559.64	7812.71
559.80	7597.38
559.97	7712.07
560.13	7868.88
560.30	7964.84
560.46	8329.97
560.63	8016.33
560.79	8390.82
560.96	8116.98
561.12	8060.80
561.29	7576.31
561.45	7763.56
561.61	7723.77
561.78	7894.63
561.94	7812.71
562.11	7674.62
562.27	7751.85
562.44	7693.34
562.60	7880.58
562.77	8049.10
562.93	8042.08
563.10	8091.23
563.26	7728.45
563.42	7679.30
563.59	7768.24
563.75	7623.12
563.92	7620.78
564.08	7602.06
564.24	7740.15
564.41	7681.64
564.57	7611.42
564.74	7566.95
564.90	7698.02
565.07	7630.15
565.23	7744.83
565.39	7342.26
565.56	7496.74
565.72	7321.20
565.88	7321.20
566.05	7433.54
566.21	7449.93
566.38	7499.08
566.54	7571.63
566.70	7522.48
566.87	7346.94
567.03	7632.49
567.19	7669.94
567.36	7496.74
567.52	7421.84
567.68	7475.67
567.85	7243.96
568.01	7080.12
568.17	6899.90
568.34	6942.03
568.50	7037.99
568.66	6974.80
568.83	6956.07
568.99	7028.63
569.15	7241.62
569.32	6946.71
569.48	6909.26
569.64	6876.49
569.81	6935.01
569.97	7066.08
570.13	7075.44
570.30	7087.14
570.46	6944.37
570.62	6766.49
570.78	6651.80
570.95	6743.08
571.11	6778.19
571.27	6869.47
571.43	6946.71
571.60	7054.37
571.76	7005.22
571.92	7089.48
572.09	7190.13
572.25	7208.85
572.41	7157.36
572.57	6998.20
572.74	7105.87
572.90	6892.88
573.06	7033.31
573.22	6923.30
573.38	7187.79
573.55	7082.46
573.71	7131.61
573.87	7019.27
574.03	6972.46
574.20	6815.64
574.36	6628.40
574.52	6789.89
574.68	6850.75
574.84	6822.66
575.01	6761.81
575.17	6626.06
575.33	6717.34
575.49	6862.45
575.65	6761.81
575.82	6888.20
575.98	6661.16
576.14	6689.25
576.30	6834.36
576.46	7159.70
576.62	7529.50
576.79	7700.36
576.95	7396.09
577.11	7101.19
577.27	7037.99
577.43	7077.78
577.59	6923.30
577.75	6775.85
577.92	6647.12
578.08	6555.84
578.24	6633.08
578.40	6740.74
578.56	6993.52
578.72	7248.64
578.88	7499.08
579.04	7211.19
579.21	6984.16
579.37	6956.07
579.53	7014.59
579.69	7052.03
579.85	6986.50
580.01	7068.42
580.17	6867.13
580.33	7014.59
580.49	6956.07
580.65	6841.39
580.82	6986.50
580.98	6953.73
581.14	6846.07
581.30	6970.12
581.46	7112.89
581.62	7054.37
581.78	7002.88
581.94	7171.40
582.10	6981.82
582.26	7150.34
582.42	7279.07
582.58	7112.89
582.74	7171.40
582.90	7019.27
583.06	6923.30
583.22	7119.91
583.38	6913.94
583.54	6981.82
583.70	7016.93
583.86	7035.65
584.02	7045.01
584.18	7267.36
584.34	6967.77
584.50	7096.50
584.66	7138.63
584.82	6822.66
584.98	6820.32
585.14	6661.16
585.30	6544.14
585.46	6621.38
585.62	6715.00
585.78	6469.24
585.94	6422.43
586.10	6705.63
586.26	6656.48
586.42	6586.27
586.58	6731.38
586.74	6785.21
586.90	6834.36
587.06	6883.52
587.22	6869.47
587.38	6658.82
587.54	6438.81
587.70	6321.79
587.86	6120.50
588.02	5926.24
588.18	5675.80
588.34	5476.85
588.49	5081.30
588.65	4868.31
588.81	4793.42
588.97	4826.18
589.13	4865.97
589.29	4791.08
589.45	4690.43
589.61	4917.47
589.77	4858.95
589.93	5177.26
590.08	5458.13
590.24	5600.90
590.40	5678.14
590.56	5603.24
590.72	5469.83
590.88	5451.11
591.04	5476.85
591.20	5568.13
591.35	5643.03
591.51	5488.56
591.67	5376.21
591.83	5455.79
591.99	5530.69
592.15	5596.22
592.31	5750.70
592.46	5664.10
592.62	5923.90
592.78	5841.98
592.94	6059.65
593.10	5930.92
593.26	5849.00
593.41	6054.97
593.57	5820.91
593.73	5703.89
593.89	5439.40
594.05	5132.79
594.20	5125.77
594.36	5074.28
594.52	5167.90
594.68	5067.26
594.84	5219.39
594.99	5610.26
595.15	5678.14
595.31	5783.46
595.47	5657.07
595.62	5479.19
595.78	5767.08
595.94	5825.59
596.10	5886.45
596.25	5699.20
596.41	5685.16
596.57	5633.67
596.73	5591.54
596.88	5673.46
597.04	5844.32
597.20	5584.52
597.36	5502.60
597.51	5631.33
597.67	5542.39
597.83	5785.80
597.99	5769.42
598.14	5675.80
598.30	5790.49
598.46	5778.78
598.61	5682.82
598.77	5865.38
598.93	5783.46
599.09	5720.27
599.24	5898.15
599.40	6094.76
599.56	5926.24
599.71	5947.30
599.87	6092.41
600.03	5659.42
600.18	6024.54
600.34	5956.66
600.50	5870.06
600.65	5825.59
600.81	5966.03
600.97	5844.32
601.12	5830.27
601.28	5834.96
601.44	5668.78
601.59	5689.84
601.75	5743.67
601.91	5722.61
602.06	5743.67
602.22	5741.33
602.37	5664.10
602.53	5762.40
602.69	5844.32
602.84	5940.28
603.00	5769.42
603.16	5947.30
603.31	5994.11
603.47	5895.81
603.62	5905.17
603.78	5722.61
603.94	5682.82
604.09	5923.90
604.25	5961.34
604.40	5830.27
604.56	5874.74
604.71	5884.11
604.87	5809.21
605.03	5856.02
605.18	5963.68
605.34	5785.80
605.49	5699.20
605.65	5888.79
605.80	5811.55
605.96	5834.96
606.12	5790.49
606.27	5893.47
606.43	5795.17
606.58	5879.43
606.74	5811.55
606.89	5942.62
607.05	5921.56
607.20	5870.06
607.36	5776.44
607.51	5874.74
607.67	5685.16
607.82	5778.78
607.98	5783.46
608.13	5884.11
608.29	5806.87
608.44	5746.02
608.60	5762.40
608.75	5928.58
608.91	5909.85
609.06	5987.09
609.22	5907.51
609.37	5994.11
609.53	6008.16
609.68	6076.03
609.84	6017.52
609.99	6122.84
610.15	6284.34
610.30	6537.12
610.46	7047.35
610.61	7295.45
610.76	7974.21
610.92	8603.81
611.07	9048.51
611.23	9193.62
611.38	8875.31
611.54	8374.44
611.69	8095.91
611.84	7267.36
612.00	7098.84
612.15	6843.73
612.31	6628.40
612.46	6546.48
612.62	6413.07
612.77	6506.69
612.92	6380.30
613.08	6183.70
613.23	6209.44
613.39	5987.09
613.54	5870.06
613.69	5877.09
613.85	5863.04
614.00	5886.45
614.15	5977.73
614.31	5975.39
614.46	5940.28
614.62	6052.63
614.77	5846.66
614.92	5863.04
615.08	5743.67
615.23	5682.82
615.38	5837.30
615.54	5619.63
615.69	5303.65
615.84	5172.58
616.00	5287.27
616.15	5277.91
616.30	5434.72
616.46	5210.03
616.61	5231.10
616.76	5198.33
616.92	5123.43
617.07	5207.69
617.22	5123.43
617.37	5156.20
617.53	5254.50
617.68	5188.97
617.83	5270.89
617.99	5121.09
618.14	5338.76
618.29	5083.64
618.45	5186.63
618.60	5256.84
618.75	5235.78
618.90	5029.81
619.06	5034.49
619.21	5144.50
619.36	5074.28
619.51	5088.32
619.67	5109.39
619.82	5104.71
619.97	5226.42
620.12	5247.48
620.28	5135.14
620.43	5039.17
620.58	5275.57
620.73	5137.48
620.89	5179.61
621.04	5036.83
621.19	4938.53
621.34	4887.04
621.49	5032.15
621.65	4854.27
621.80	4980.66
621.95	4990.02
622.10	4978.32
622.25	4985.34
622.41	4835.55
622.56	4896.40
622.71	4826.18
622.86	4959.60
623.01	4805.12
623.16	4994.70
623.32	4755.97
623.47	4957.25
623.62	4858.95
623.77	4791.08
623.92	4741.93
624.07	4739.58
624.23	4699.80
624.38	4725.54
624.53	4858.95
624.68	4718.52
624.83	4774.69
624.98	4631.92
625.13	4582.77
625.29	4587.45
625.44	4582.77
625.59	4472.76
625.74	4638.94
625.89	4594.47
626.04	4669.37
626.19	4613.20
626.34	4629.58
626.49	4631.92
626.65	4484.47
626.80	4624.90
626.95	4428.29
627.10	4496.17
627.25	4418.93
627.40	4264.46
627.55	4051.47
627.70	4095.94
627.85	4063.17
628.00	4114.66
628.15	4283.18
628.30	4278.50
628.45	4222.33
628.60	4344.03
628.76	4376.80
628.91	4287.86
629.06	4271.48
629.21	4269.14
629.36	4273.82
629.51	4252.75
629.66	4311.27
629.81	4168.49
629.96	4278.50
630.11	4425.95
630.26	4299.56
630.41	4475.10
630.56	4540.64
630.71	4367.44
630.86	4557.02
631.01	4451.70
631.16	4393.19
631.31	4425.95
631.46	4287.86
631.61	4152.11
631.76	4276.16
631.91	4154.45
632.06	4035.08
632.21	4182.54
632.36	4257.43
632.51	4166.15
632.66	4224.67
632.81	4107.64
632.96	4257.43
633.10	4102.96
633.25	4065.51
633.40	4035.08
633.55	4044.45
633.70	4074.87
633.85	4084.23
634.00	4070.19
634.15	4086.58
634.30	4030.40
634.45	4053.81
634.60	4280.84
634.75	4149.77
634.90	4088.92
635.05	4060.83
635.19	4145.09
635.34	3868.91
635.49	4088.92
635.64	3950.82
635.79	3955.51
635.94	3985.93
636.09	3969.55
636.24	4025.72
636.39	3990.61
636.53	3997.64
636.68	4025.72
636.83	4049.13
636.98	4142.75
637.13	4088.92
637.28	4168.49
637.43	4154.45
637.57	4147.43
637.72	4105.30
637.87	4037.42
638.02	4044.45
638.17	4042.11
638.32	4042.11
638.46	4077.21
638.61	4119.34
638.76	3899.33
638.91	3969.55
639.06	3948.48
639.20	3974.23
639.35	3941.46
639.50	3812.73
639.65	3873.59
639.80	3946.14
639.94	3772.94
640.09	3871.25
640.24	3941.46
640.39	3868.91
640.54	3775.28
640.68	3716.77
640.83	3871.25
640.98	3904.01
641.13	3871.25
641.27	3878.27
641.42	3857.20
641.57	3887.63
641.72	3742.52
641.86	3819.75
642.01	3829.12
642.16	3838.48
642.31	3819.75
642.45	3829.12
642.60	3824.44
642.75	3801.03
642.90	3796.35
643.04	3796.35
643.19	3836.14
643.34	3702.73
643.48	3742.52
643.63	3810.39
643.78	3822.09
643.93	3845.50
644.07	3808.05
644.22	3754.22
644.37	3602.08
644.51	3674.64
644.66	3627.83
644.81	3679.32
644.95	3550.59
645.10	3599.74
645.25	3592.72
645.39	3527.19
645.54	3625.49
645.69	3632.51
645.83	3487.40
645.98	3330.58
646.13	3199.51
646.27	3377.39
646.42	3421.86
646.57	3229.94
646.71	3185.47
646.86	3229.94
647.00	3234.62
647.15	3070.78
647.30	2939.71
647.44	3061.42
647.59	3035.67
647.74	3150.36
647.88	2986.52
648.03	2979.50
648.17	3157.38
648.32	3108.23
648.47	3190.15
648.61	3211.22
648.76	3218.24
648.90	3133.98
649.05	3075.46
649.20	2991.20
649.34	3084.83
649.49	2946.73
649.63	3133.98
649.78	3159.72
649.92	3311.86
650.07	3449.95
650.21	3452.29
650.36	3531.87
650.51	3461.65
650.65	3604.42
650.80	3407.82
650.94	3335.26
651.09	3108.23
651.23	3145.68
651.38	2803.96
651.52	2949.08
651.67	2860.13
651.81	2946.73
651.96	3166.74
652.10	3150.36
652.25	3218.24
652.39	3283.77
652.54	3398.46
652.68	3318.88
652.83	3307.18
652.97	3300.16
653.12	3281.43
653.26	3227.60
653.41	3197.17
653.55	3185.47
653.70	3246.32
653.84	3201.85
653.99	3276.75
654.13	3176.11
654.27	3080.14
654.42	2906.95
654.56	3054.40
654.71	2972.48
654.85	2956.10
655.00	3038.02
655.14	3047.38
655.29	2827.37
655.43	2923.33
655.57	2818.00
655.72	2796.94
655.86	2593.31
656.01	2366.28
656.15	2331.17
656.30	2401.39
656.44	2539.48
656.58	2698.64
656.73	2740.77
656.87	2752.47
657.01	2984.18
657.16	2860.13
657.30	3014.61
657.45	3110.57
657.59	3129.30
657.73	3045.04
657.88	3073.12
658.02	3145.68
658.16	3091.85
658.31	3049.72
658.45	2993.55
658.60	2967.80
658.74	3035.67
658.88	3173.77
659.03	3014.61
659.17	3089.51
659.31	3000.57
659.46	3091.85
659.60	3124.62
659.74	3077.80
659.89	3258.03
660.03	3141.00
660.17	3096.53
660.32	3206.53
660.46	3117.59
660.60	3129.30
660.74	3103.55
660.89	3049.72
661.03	3005.25
661.17	3094.19
661.32	3122.27
661.46	3009.93
661.60	3162.06
661.74	3190.15
661.89	3110.57
662.03	3141.00
662.17	3112.91
662.31	3138.66
662.46	3145.68
662.60	3157.38
662.74	3007.59
662.88	3045.04
663.03	3061.42
663.17	2902.26
663.31	3059.08
663.45	3117.59
663.60	2963.12
663.74	3021.63
663.88	3061.42
664.02	2963.12
664.17	3056.74
664.31	2944.39
664.45	2986.52
664.59	2930.35
664.73	2960.78
664.88	3016.95
665.02	3007.59
665.16	2909.29
665.30	3042.70
665.44	2972.48
665.59	2878.86
665.73	2970.14
665.87	2906.95
666.01	2909.29
666.15	2918.65
666.29	2792.26
666.44	2984.18
666.58	3016.95
666.72	2792.26
666.86	2874.18
667.00	2963.12
667.14	2860.13
667.28	2848.43
667.43	2937.37
667.57	2932.69
667.71	2836.73
667.85	2869.50
667.99	2766.51
668.13	2771.19
668.27	2775.88
668.41	2846.09
668.56	2771.19
668.70	2871.84
668.84	2818.00
668.98	2874.18
669.12	2782.90
669.26	2834.39
669.40	2970.14
669.54	2885.88
669.68	2736.09
669.82	2761.83
669.96	2710.34
670.10	2789.92
670.25	2729.06
670.39	2771.19
670.53	2656.51
670.67	2773.53
670.81	2768.85
670.95	2747.79
671.09	2656.51
671.23	2705.66
671.37	2789.92
671.51	2722.04
671.65	2588.63
671.79	2588.63
671.93	2572.25
672.07	2555.86
672.21	2612.04
672.35	2668.21
672.49	2567.57
672.63	2581.61
672.77	2569.91
672.91	2661.19
673.05	2581.61
673.19	2675.23
673.33	2644.81
673.47	2567.57
673.61	2560.55
673.75	2537.14
673.89	2551.18
674.03	2590.97
674.17	2595.65
674.31	2539.48
674.45	2621.40
674.59	2469.27
674.73	2544.16
674.87	2464.58
675.01	2581.61
675.15	2450.54
675.29	2485.65
675.43	2574.59
675.56	2413.09
675.70	2574.59
675.84	2544.16
675.98	2490.33
676.12	2492.67
676.26	2380.32
676.40	2487.99
676.54	2541.82
676.68	2497.35
676.82	2480.97
676.96	2361.60
677.10	2368.62
677.23	2415.43
677.37	2373.30
677.51	2413.09
677.65	2429.48
677.79	2455.22
677.93	2380.32
678.07	2307.77
678.21	2244.57
678.34	2314.79
678.48	2314.79
678.62	2314.79
678.76	2401.39
678.90	2244.57
679.04	2363.94
679.18	2293.72
679.31	2165.00
679.45	2263.30
679.59	2265.64
679.73	2258.62
679.87	2284.36
680.00	2282.02
680.14	2244.57
680.28	2188.40
680.42	2282.02
680.56	2296.07
680.70	2155.63
680.83	2296.07
680.97	2150.95
681.11	2132.23
681.25	2125.21
681.39	2106.48
681.52	2160.31
681.66	2115.84
681.80	2115.84
681.94	2148.61
682.07	2118.18
682.21	2136.91
682.35	2183.72
682.49	2120.53
682.62	2094.78
682.76	1968.39
682.90	2104.14
683.04	2008.18
683.17	1994.14
683.31	2012.86
683.45	2080.74
683.59	2040.95
683.72	2003.50
683.86	1991.80
684.00	1846.68
684.13	2038.61
684.27	2036.27
684.41	2001.16
684.55	1916.90
684.68	1881.79
684.82	1952.01
684.96	1940.30
685.09	1837.32
685.23	1888.81
685.37	1846.68
685.50	1921.58
685.64	1891.15
685.78	1813.92
685.91	1893.49
686.05	1949.67
686.19	1860.73
686.32	1720.29
686.46	1633.69
686.60	1345.81
686.73	1254.53
686.87	1130.48
687.01	1055.58
687.14	1064.94
687.28	1102.39
687.42	1107.07
687.55	1228.78
687.69	1380.92
687.82	1275.59
687.96	1514.33
688.10	1551.78
688.23	1579.86
688.37	1519.01
688.50	1390.28
688.64	1458.15
688.78	1439.43
688.91	1327.08
689.05	1355.17
689.18	1359.85
689.32	1329.42
689.46	1350.49
689.59	1280.27
689.73	1392.62
689.86	1385.60
690.00	1324.74
690.13	1348.15
690.27	1406.66
690.41	1334.11
690.54	1416.02
690.68	1502.62
690.81	1371.55
690.95	1472.20
691.08	1451.13
691.22	1376.24
691.35	1390.28
691.49	1366.87
691.62	1345.81
691.76	1240.48
691.89	1345.81
692.03	1299.00
692.16	1186.65
692.30	1348.15
692.43	1235.80
692.57	1203.04
692.70	1144.52
692.84	1240.48
692.97	1191.33
693.11	1142.18
693.24	1163.25
693.38	1263.89
693.51	1226.44
693.65	1247.51
693.78	1095.37
693.92	1088.35
694.05	1116.44
694.19	1167.93
694.32	1118.78
694.45	1097.71
694.59	1071.97
694.72	1135.16
694.86	1214.74
694.99	1184.31
695.13	1121.12
695.26	1170.27
695.39	1111.75
695.53	1139.84
695.66	1104.73
695.80	1132.82
695.93	1078.99
696.07	1109.41
696.20	1205.38
696.33	1242.82
696.47	1174.95
696.60	1282.61
696.73	1345.81
696.87	1238.14
697.00	1291.98
697.14	1256.87
697.27	1149.20
697.40	1308.36
697.54	1242.82
697.67	1317.72
697.80	1212.40
697.94	1221.76
698.07	1198.35
698.21	1100.05
698.34	1163.25
698.47	1198.35
698.61	1135.16
698.74	1008.77
698.87	1022.81
699.01	985.37
699.14	950.26
699.27	1025.15
699.40	1060.26
699.54	1034.52
699.67	992.39
699.80	1041.54
699.94	1013.45
700.07	1053.24
700.20	1004.09
700.34	938.55
700.47	933.87
700.60	940.90
700.73	964.30
700.87	1109.41
701.00	877.70
701.13	994.73
701.26	999.41
701.40	1027.50
701.53	849.61
701.66	905.79
701.79	933.87
701.93	870.68
702.06	952.60
702.19	940.90
702.32	917.49
702.46	882.38
702.59	849.61
702.72	821.53
702.85	788.76
702.99	987.71
703.12	1088.35
703.25	973.66
703.38	1043.88
703.51	968.98
703.65	912.81
703.78	957.28
703.91	968.98
704.04	1004.09
704.17	889.40
704.31	973.66
704.44	966.64
704.57	889.40
704.70	912.81
704.83	938.55
704.96	919.83
705.10	926.85
705.23	821.53
>>>>>End Processed Spectral Data<<<<<
