SpectraSuite Data File
++++++++++++++++++++++++++++++++++++
Date: Fri Oct 04 11:44:17 GMT-05:00 2013
User: price-jones
Dark Spectrum Present: No
Reference Spectrum Present: No
Number of Sampled Component Spectra: 1
Spectrometers: USB2+H05261
Integration Time (usec): 100000 (USB2+H05261)
Spectra Averaged: 1 (USB2+H05261)
Boxcar Smoothing: 0 (USB2+H05261)
Correct for Electrical Dark: No (USB2+H05261)
Strobe/Lamp Enabled: No (USB2+H05261)
Correct for Detector Non-linearity: No (USB2+H05261)
Correct for Stray Light: No (USB2+H05261)
Number of Pixels in Processed Spectrum: 2048
>>>>>Begin Processed Spectral Data<<<<<
365.73	35.11
365.92	35.11
366.12	35.11
366.32	0.00
366.52	0.00
366.72	0.00
366.91	0.00
367.11	0.00
367.31	0.00
367.51	0.00
367.70	0.00
367.90	0.00
368.10	23.41
368.30	0.00
368.49	0.00
368.69	0.00
368.89	0.00
369.09	0.00
369.28	0.00
369.48	18.72
369.68	0.00
369.87	4.68
370.07	37.45
370.27	7.02
370.47	250.44
370.66	772.38
370.86	950.26
371.06	1039.20
371.25	1043.88
371.45	866.00
371.65	936.21
371.84	777.06
372.04	924.51
372.24	943.24
372.44	983.02
372.63	971.32
372.83	990.05
373.03	821.53
373.22	781.74
373.42	809.83
373.62	952.60
373.81	919.83
374.01	961.96
374.21	954.94
374.40	866.00
374.60	973.66
374.79	1053.24
374.99	1263.89
375.19	1200.69
375.38	1203.04
375.58	1102.39
375.78	1062.60
375.97	1064.94
376.17	1203.04
376.37	1217.08
376.56	1273.25
376.76	1291.98
376.95	1334.11
377.15	1423.05
377.35	1352.83
377.54	1521.35
377.74	1469.86
377.93	1479.22
378.13	1563.48
378.33	1465.18
378.52	1394.96
378.72	1266.23
378.91	1282.61
379.11	1238.14
379.31	1156.22
379.50	1254.53
379.70	1277.93
379.89	1448.79
380.09	1411.34
380.28	1420.71
380.48	1432.41
380.68	1500.28
380.87	1460.49
381.07	1425.39
381.26	1184.31
381.46	1226.44
381.65	1203.04
381.85	1055.58
382.04	1071.97
382.24	1088.35
382.43	950.26
382.63	1025.15
382.83	929.19
383.02	966.64
383.22	922.17
383.41	929.19
383.61	1032.18
383.80	1170.27
384.00	1247.51
384.19	1387.94
384.39	1355.17
384.58	1411.34
384.78	1432.41
384.97	1331.76
385.17	1387.94
385.36	1291.98
385.56	1287.29
385.75	1249.85
385.95	1373.89
386.14	1413.68
386.34	1486.24
386.53	1409.00
386.72	1324.74
386.92	1423.05
387.11	1469.86
387.31	1453.47
387.50	1341.13
387.70	1446.45
387.89	1341.13
388.09	1502.62
388.28	1460.49
388.48	1334.11
388.67	1511.99
388.86	1809.23
389.06	1764.76
389.25	1844.34
389.45	1973.07
389.64	1970.73
389.84	1919.24
390.03	1816.26
390.22	1914.56
390.42	1827.96
390.61	1956.69
390.81	2076.06
391.00	2052.65
391.19	2115.84
391.39	2024.56
391.58	1865.41
391.78	1863.07
391.97	1867.75
392.16	1610.29
392.36	1533.05
392.55	1317.72
392.75	1041.54
392.94	947.92
393.13	959.62
393.33	933.87
393.52	1270.91
393.71	1572.84
393.91	1675.82
394.10	1736.68
394.29	1863.07
394.49	1877.11
394.68	2150.95
394.88	2120.53
395.07	2155.63
395.26	2239.89
395.46	2286.70
395.65	2057.33
395.84	1825.62
396.04	1563.48
396.23	1308.36
396.42	1118.78
396.62	1093.03
396.81	1315.38
397.00	1640.72
397.19	1877.11
397.39	2141.59
397.58	2483.31
397.77	2499.69
397.97	2487.99
398.16	2715.02
398.35	2827.37
398.55	2862.48
398.74	3019.29
398.93	3129.30
399.12	2998.23
399.32	2839.07
399.51	2951.42
399.70	3164.40
399.90	3063.76
400.09	3178.45
400.28	3016.95
400.47	3110.57
400.67	3286.11
400.86	3253.34
401.05	3260.37
401.24	3234.62
401.44	3391.44
401.63	3361.01
401.82	3349.31
402.01	3400.80
402.21	3424.20
402.40	3389.10
402.59	3255.69
402.78	3126.96
402.97	3110.57
403.17	3215.90
403.36	3248.66
403.55	3482.72
403.74	3574.00
403.93	3307.18
404.13	3220.58
404.32	3192.49
404.51	3365.69
404.70	3403.14
404.89	3527.19
405.09	3463.99
405.28	3435.91
405.47	3393.78
405.66	3318.88
405.85	3246.32
406.05	3253.34
406.24	3246.32
406.43	3353.99
406.62	3545.91
406.81	3452.29
407.00	3346.97
407.20	3351.65
407.39	3293.13
407.58	3576.34
407.77	3597.40
407.96	3595.06
408.15	3744.86
408.34	3648.90
408.54	3854.86
408.73	3744.86
408.92	3684.00
409.11	3754.22
409.30	3543.57
409.49	3424.20
409.68	3204.19
409.87	3232.28
410.07	3187.81
410.26	3297.81
410.45	3667.62
410.64	3672.30
410.83	3737.84
411.02	3868.91
411.21	4117.00
411.40	4126.36
411.59	4112.32
411.78	3889.97
411.98	3946.14
412.17	4072.53
412.36	4149.77
412.55	3941.46
412.74	3854.86
412.93	3784.65
413.12	3824.44
413.31	4121.68
413.50	4212.96
413.69	4273.82
413.88	4189.56
414.07	4037.42
414.26	4098.28
414.45	4135.73
414.64	4147.43
414.83	4276.16
415.02	4126.36
415.22	4255.09
415.41	4222.33
415.60	4236.37
415.79	4475.10
415.98	4601.49
416.17	4606.17
416.36	4416.59
416.55	4365.10
416.74	4381.48
416.93	4152.11
417.12	4299.56
417.31	4210.62
417.50	4262.12
417.69	4442.34
417.88	4397.87
418.07	4386.16
418.26	4276.16
418.45	4337.01
418.64	4444.68
418.83	4571.07
419.02	4634.26
419.21	4582.77
419.39	4301.90
419.58	4030.40
419.77	4065.51
419.96	4369.78
420.15	4648.30
420.34	4660.01
420.53	4744.27
420.72	4903.42
420.91	4901.08
421.10	4830.87
421.29	4819.16
421.48	4519.57
421.67	4786.40
421.86	4657.67
422.05	4498.51
422.24	4009.34
422.43	4046.79
422.61	4198.92
422.80	4585.11
422.99	4685.75
423.18	4472.76
423.37	4397.87
423.56	4348.72
423.75	4451.70
423.94	4601.49
424.13	4290.20
424.32	4259.78
424.50	4390.84
424.69	4395.53
424.88	4470.42
425.07	4456.38
425.26	4390.84
425.45	4210.62
425.64	4067.85
425.83	4182.54
426.01	4395.53
426.20	4629.58
426.39	4437.66
426.58	4161.47
426.77	3913.38
426.96	3761.24
427.15	4011.68
427.33	4051.47
427.52	4236.37
427.71	4346.37
427.90	4381.48
428.09	4414.25
428.28	4128.70
428.46	4037.42
428.65	4053.81
428.84	4126.36
429.03	4051.47
429.22	3875.93
429.40	3805.71
429.59	3407.82
429.78	3157.38
429.97	2981.84
430.16	3173.77
430.34	3187.81
430.53	3157.38
430.72	3129.30
430.91	3435.91
431.10	4102.96
431.28	4493.83
431.47	4910.44
431.66	4992.36
431.85	4774.69
432.03	4449.36
432.22	4208.28
432.41	4236.37
432.60	4734.90
432.79	4987.68
432.97	5111.73
433.16	4966.62
433.35	4514.89
433.54	4053.81
433.72	3999.98
433.91	4079.55
434.10	4355.74
434.28	4550.00
434.47	4919.81
434.66	4833.21
434.85	4870.65
435.03	4758.31
435.22	4901.08
435.41	5291.95
435.59	5591.54
435.78	5497.92
435.97	5418.34
436.16	5355.15
436.34	5434.72
436.53	5186.63
436.72	5336.42
436.90	4887.04
437.09	5095.35
437.28	4959.60
437.46	4947.89
437.65	4966.62
437.84	4652.98
438.02	4351.06
438.21	4313.61
438.40	4414.25
438.58	4842.57
438.77	4915.12
438.96	5067.26
439.14	5261.52
439.33	5416.00
439.52	5366.85
439.70	5139.82
439.89	5153.86
440.08	5170.24
440.26	5153.86
440.45	5022.79
440.63	5444.09
440.82	5636.01
441.01	5565.79
441.19	5748.36
441.38	5724.95
441.57	5825.59
441.75	5961.34
441.94	5975.39
442.12	5921.56
442.31	6099.44
442.50	5790.49
442.68	5905.17
442.87	5811.55
443.05	5949.64
443.24	5830.27
443.43	5935.60
443.61	6104.12
443.80	6118.16
443.98	5980.07
444.17	5696.86
444.35	6190.72
444.54	6366.26
444.73	6176.67
444.91	5886.45
445.10	5710.91
445.28	5657.07
445.47	5502.60
445.65	5673.46
445.84	5706.23
446.02	5631.33
446.21	5750.70
446.39	5937.94
446.58	6024.54
446.77	6038.58
446.95	6071.35
447.14	6239.87
447.32	6462.22
447.51	6373.28
447.69	6164.97
447.88	5877.09
448.06	6108.80
448.25	5928.58
448.43	6136.88
448.62	6099.44
448.80	5959.00
448.99	6104.12
449.17	6298.38
449.36	6146.25
449.54	6347.53
449.73	6502.01
449.91	6614.35
450.10	6771.17
450.28	6787.55
450.46	6689.25
450.65	6902.24
450.83	6621.38
451.02	6420.09
451.20	6703.29
451.39	6459.88
451.57	6410.73
451.76	6410.73
451.94	6342.85
452.13	6366.26
452.31	6071.35
452.49	5701.54
452.68	5708.57
452.86	5785.80
453.05	5977.73
453.23	5984.75
453.42	6232.85
453.60	6438.81
453.78	6380.30
453.97	6392.00
454.15	6237.53
454.34	6047.94
454.52	6113.48
454.70	6162.63
454.89	6270.30
455.07	6136.88
455.26	6176.67
455.44	6494.99
455.62	6647.12
455.81	6675.21
455.99	6612.01
456.17	6539.46
456.36	6579.25
456.54	6707.98
456.73	6602.65
456.91	6787.55
457.09	6876.49
457.28	6918.62
457.46	6715.00
457.64	6712.66
457.83	6586.27
458.01	6408.39
458.19	6544.14
458.38	6480.94
458.56	6677.55
458.74	6757.13
458.93	6523.07
459.11	6635.42
459.29	6633.08
459.48	6663.51
459.66	6576.91
459.84	6633.08
460.03	6656.48
460.21	6518.39
460.39	6815.64
460.57	6754.79
460.76	6974.80
460.94	6913.94
461.12	6796.92
461.31	6864.79
461.49	6834.36
461.67	6883.52
461.85	7037.99
462.04	6993.52
462.22	7695.68
462.40	6974.80
462.59	7066.08
462.77	7075.44
462.95	7028.63
463.13	6883.52
463.32	6841.39
463.50	6841.39
463.68	6883.52
463.86	6892.88
464.05	6642.44
464.23	6511.37
464.41	6527.75
464.59	6502.01
464.78	6743.08
464.96	6775.85
465.14	6733.72
465.32	6923.30
465.50	7075.44
465.69	7197.15
465.87	6958.41
466.05	6656.48
466.23	6303.06
466.41	6375.62
466.60	6471.58
466.78	6392.00
466.96	6691.59
467.14	6731.38
467.32	6843.73
467.51	6757.13
467.69	6476.26
467.87	6778.19
468.05	6707.98
468.23	6764.15
468.41	6834.36
468.60	6731.38
468.78	6689.25
468.96	6722.02
469.14	6658.82
469.32	6745.42
469.50	6616.69
469.69	6665.85
469.87	6471.58
470.05	6628.40
470.23	6590.95
470.41	6471.58
470.59	6576.91
470.77	6663.51
470.95	6502.01
471.14	6665.85
471.32	6883.52
471.50	7185.44
471.68	7164.38
471.86	7314.17
472.04	7229.91
472.22	7382.05
472.40	6944.37
472.58	7077.78
472.77	6822.66
472.95	6932.67
473.13	7143.32
473.31	7229.91
473.49	7005.22
473.67	7225.23
473.85	7143.32
474.03	7445.24
474.21	7449.93
474.39	7396.09
474.57	7290.77
474.75	7337.58
474.93	7424.18
475.12	7384.39
475.30	7290.77
475.48	7325.88
475.66	7321.20
475.84	7297.79
476.02	7190.13
476.20	6925.65
476.38	7419.50
476.56	7445.24
476.74	7492.05
476.92	7531.84
477.10	7903.99
477.28	7988.25
477.46	7911.01
477.64	7934.42
477.82	7922.71
478.00	8210.60
478.18	7974.21
478.36	8016.33
478.54	7964.84
478.72	7978.89
478.90	8217.62
479.08	8458.70
479.26	8446.99
479.44	8683.39
479.62	8578.06
479.80	8599.13
479.98	8390.82
480.16	8678.71
480.34	8512.53
480.52	8629.56
480.70	8599.13
480.88	8629.56
481.06	8872.97
481.24	8800.41
481.41	8999.36
481.59	9231.07
481.77	9006.38
481.95	8933.82
482.13	8931.48
482.31	8879.99
482.49	9275.54
482.67	9055.53
482.85	9102.34
483.03	9455.76
483.21	9525.98
483.39	9399.59
483.57	9121.07
483.74	9207.67
483.92	9345.76
484.10	9247.46
484.28	9530.66
484.46	9645.35
484.64	9692.16
484.82	9446.40
485.00	9301.29
485.18	9029.79
485.35	9062.55
485.53	8423.59
485.71	7754.19
485.89	7302.47
486.07	7747.17
486.25	8547.64
486.43	8739.56
486.61	9121.07
486.78	8917.44
486.96	9184.26
487.14	9315.33
487.32	9657.05
487.50	9989.41
487.68	10115.80
487.85	10698.59
488.03	10303.04
488.21	10331.12
488.39	9975.36
488.57	9973.02
488.75	9736.63
488.92	10359.21
489.10	10668.16
489.28	11225.21
489.46	11344.58
489.64	11204.14
489.81	11431.18
489.99	11199.46
490.17	11206.48
490.35	11604.38
490.53	11407.77
490.70	10949.03
490.88	10956.05
491.06	11585.65
491.24	11470.97
491.41	11089.46
491.59	10733.70
491.77	10333.47
491.95	10787.53
492.13	11068.39
492.30	11246.27
492.48	11754.17
492.66	11882.90
492.84	11885.24
493.01	11768.21
493.19	11595.01
493.37	11665.23
493.54	11349.26
493.72	11630.12
493.90	11983.54
494.08	12594.42
494.25	12482.08
494.43	12587.40
494.61	12648.26
494.79	12926.78
494.96	12702.09
495.14	12652.94
495.32	12079.50
495.49	11754.17
495.67	12287.81
495.85	12978.27
496.02	12856.56
496.20	12912.74
496.38	12812.09
496.55	12482.08
496.73	12968.91
496.91	12760.60
497.09	13394.89
497.26	13441.70
497.44	13233.39
497.62	12800.39
497.79	12549.95
497.97	12123.98
498.14	11934.39
498.32	12306.54
498.50	12886.99
498.67	13167.85
498.85	12886.99
499.03	13001.68
499.20	13193.60
499.38	13291.90
499.56	13078.91
499.73	12938.48
499.91	12755.92
500.08	12545.27
500.26	12280.79
500.44	11992.90
500.61	12772.30
500.79	12608.47
500.97	12608.47
501.14	12538.25
501.32	12105.25
501.49	12252.70
501.67	12336.96
501.84	12519.53
502.02	12587.40
502.20	12826.14
502.37	12643.57
502.55	12737.20
502.72	13034.44
502.90	13305.95
503.07	12933.80
503.25	12627.19
503.43	12327.60
503.60	11920.35
503.78	11513.10
503.95	11831.41
504.13	12222.28
504.30	12905.71
504.48	13053.17
504.65	13090.62
504.83	13102.32
505.01	13444.04
505.18	13413.61
505.36	13455.74
505.53	13523.62
505.71	13680.43
505.88	13689.79
506.06	13642.98
506.23	13390.20
506.41	13128.06
506.58	13137.43
506.76	13184.24
506.93	13048.49
507.11	12837.84
507.28	13177.22
507.46	13099.98
507.63	12872.95
507.81	12737.20
507.98	12725.49
508.16	13064.87
508.33	13352.76
508.50	13645.32
508.68	13453.40
508.85	13848.95
509.03	14031.51
509.20	14001.08
509.38	13752.99
509.55	13348.08
509.73	13308.29
509.90	13727.24
510.08	13668.73
510.25	13717.88
510.42	13422.97
510.60	13635.96
510.77	13713.20
510.95	14113.43
511.12	14235.14
511.30	13968.32
511.47	14270.25
511.64	14424.72
511.82	13989.38
511.99	13872.36
512.17	13933.21
512.34	13781.07
512.51	13401.91
512.69	13680.43
512.86	13652.34
513.04	14040.87
513.21	13760.01
513.38	13722.56
513.56	13357.44
513.73	13193.60
513.90	13446.38
514.08	13088.28
514.25	13369.14
514.43	13699.16
514.60	13687.45
514.77	13790.44
514.95	13741.29
515.12	13589.15
515.29	13872.36
515.47	14178.97
515.64	14452.81
515.81	14134.50
515.99	13902.78
516.16	13184.24
516.33	12039.72
516.51	11648.85
516.68	11248.61
516.85	10970.09
517.03	11012.22
517.20	12182.49
517.37	13221.69
517.54	13657.03
517.72	13603.19
517.89	12664.64
518.06	11517.78
518.24	11597.35
518.41	12191.85
518.58	13020.40
518.75	13121.04
518.93	13427.65
519.10	13099.98
519.27	13467.44
519.45	13252.11
519.62	13598.51
519.79	13907.46
519.96	14005.77
520.14	13734.26
520.31	13666.39
520.48	13408.93
520.65	13528.30
520.83	13891.08
521.00	14141.52
521.17	13919.17
521.34	14008.11
521.52	13989.38
521.69	14101.73
521.86	14354.51
522.03	14218.75
522.20	13745.97
522.38	13291.90
522.55	12908.05
522.72	13373.82
522.89	13455.74
523.07	13530.64
523.24	13692.13
523.41	14314.72
523.58	14265.57
523.75	14494.94
523.92	14483.24
524.10	14633.03
524.27	14637.71
524.44	14487.92
524.61	14338.12
524.78	14319.40
524.96	14108.75
525.13	14164.92
525.30	14420.04
525.47	14546.43
525.64	14288.97
525.81	14293.65
525.98	13200.62
526.16	12746.56
526.33	12372.07
526.50	12379.09
526.67	12093.55
526.84	12421.22
527.01	12755.92
527.18	13394.89
527.36	13537.66
527.53	13949.59
527.70	14626.01
527.87	13827.88
528.04	13799.80
528.21	13877.04
528.38	14071.30
528.55	14546.43
528.72	14609.62
528.89	15059.01
529.07	14663.46
529.24	14410.68
529.41	14176.62
529.58	13710.86
529.75	13554.04
529.92	13769.37
530.09	14342.80
530.26	14588.56
530.43	14480.89
530.60	14530.05
530.77	14738.35
530.94	14551.11
531.11	14579.20
531.28	14162.58
531.46	14251.52
531.63	14516.00
531.80	14228.12
531.97	14347.48
532.14	13874.70
532.31	13387.86
532.48	12889.33
532.65	12863.58
532.82	13422.97
532.99	13806.82
533.16	14057.26
533.33	14391.95
533.50	14345.14
533.67	13846.61
533.84	13685.11
534.01	14061.94
534.18	13621.92
534.35	13907.46
534.52	13968.32
534.69	14050.24
534.86	14317.06
535.03	14445.79
535.20	14614.30
535.37	14670.48
535.54	14913.89
535.71	14831.97
535.88	14597.92
536.05	14235.14
536.22	14090.02
536.38	13706.18
536.55	13434.68
536.72	13551.70
536.89	13242.75
537.06	13635.96
537.23	13933.21
537.40	14188.33
537.57	14015.13
537.74	14380.25
537.91	14218.75
538.08	14040.87
538.25	14017.47
538.42	14286.63
538.59	13984.70
538.75	13870.01
538.92	13495.53
539.09	13713.20
539.26	13671.07
539.43	13434.68
539.60	13205.30
539.77	13455.74
539.94	13270.84
540.11	13174.88
540.28	12898.69
540.44	12912.74
540.61	13111.68
540.78	13036.78
540.95	13263.82
541.12	13287.22
541.29	13509.57
541.46	13717.88
541.62	13757.67
541.79	13818.52
541.96	13654.69
542.13	13717.88
542.30	13745.97
542.47	13851.29
542.63	13806.82
542.80	13408.93
542.97	13575.11
543.14	13357.44
543.31	13511.91
543.48	13680.43
543.64	14211.73
543.81	14373.23
543.98	14164.92
544.15	13778.73
544.32	13743.63
544.48	13336.37
544.65	13823.20
544.82	14029.17
544.99	13841.93
545.16	13792.78
545.32	13582.13
545.49	14157.90
545.66	14714.95
545.83	14555.79
546.00	14193.01
546.16	13774.05
546.33	13928.53
546.50	13603.19
546.67	13853.63
546.83	13750.65
547.00	13680.43
547.17	13444.04
547.34	12919.76
547.50	13259.13
547.67	13235.73
547.84	13397.23
548.00	13654.69
548.17	13465.10
548.34	13303.60
548.51	13621.92
548.67	13600.85
548.84	13640.64
549.01	13657.03
549.18	13507.23
549.34	13563.40
549.51	13584.47
549.68	13582.13
549.84	13514.25
550.01	13217.01
550.18	13280.20
550.34	13469.78
550.51	13591.49
550.68	13619.58
550.84	13366.80
551.01	13397.23
551.18	13165.51
551.34	13301.26
551.51	13488.51
551.68	13757.67
551.84	13968.32
552.01	13682.77
552.18	13312.97
552.34	13338.71
552.51	13034.44
552.68	12996.99
552.84	13062.53
553.01	13483.83
553.18	13217.01
553.34	13399.57
553.51	13301.26
553.67	13261.48
553.84	13575.11
554.01	13387.86
554.17	13322.33
554.34	13362.12
554.51	13338.71
554.67	13624.26
554.84	13738.94
555.00	13493.19
555.17	13422.97
555.33	13366.80
555.50	13074.23
555.67	13195.94
555.83	13172.54
556.00	12999.34
556.16	13020.40
556.33	12861.24
556.50	12835.50
556.66	12856.56
556.83	12641.23
556.99	12533.57
557.16	12690.38
557.32	12870.61
557.49	12957.21
557.65	12645.91
557.82	12812.09
557.98	13001.68
558.15	12531.23
558.32	12535.91
558.48	12159.08
558.65	12009.29
558.81	12248.02
558.98	12170.79
559.14	12362.71
559.31	12533.57
559.47	12177.81
559.64	12334.62
559.80	12091.21
559.97	12194.19
560.13	12456.33
560.30	12800.39
560.46	12844.86
560.63	13032.10
560.79	13109.34
560.96	13027.42
561.12	12554.63
561.29	12229.30
561.45	12189.51
561.61	12428.24
561.78	12603.78
561.94	12589.74
562.11	12627.19
562.27	12203.55
562.44	12566.34
562.60	12580.38
562.77	12599.10
562.93	12655.28
563.10	12936.14
563.26	12629.53
563.42	12528.89
563.59	12442.29
563.75	12175.47
563.92	12184.83
564.08	12400.16
564.24	12554.63
564.41	12416.54
564.57	12432.93
564.74	12299.52
564.90	12512.50
565.07	12463.35
565.23	12238.66
565.39	11824.39
565.56	11728.42
565.72	11595.01
565.88	11918.01
566.05	11648.85
566.21	11969.50
566.38	11831.41
566.54	12084.19
566.70	11833.75
566.87	12353.35
567.03	12238.66
567.19	12245.68
567.36	12011.63
567.52	12053.76
567.68	11899.28
567.85	11627.78
568.01	11342.24
568.17	11475.65
568.34	10939.66
568.50	10981.79
568.66	10909.24
568.83	11253.30
568.99	11131.59
569.15	11372.66
569.32	11110.52
569.48	11227.55
569.64	11199.46
569.81	11157.33
569.97	11386.71
570.13	11365.64
570.30	10932.64
570.46	10993.50
570.62	10796.89
570.78	10588.58
570.95	10925.62
571.11	11021.58
571.27	10974.77
571.43	11028.60
571.60	11283.72
571.76	11063.71
571.92	11358.62
572.09	11463.94
572.25	11367.98
572.41	11391.39
572.57	11297.77
572.74	11398.41
572.90	11248.61
573.06	11250.96
573.22	11379.68
573.38	11293.08
573.55	11098.82
573.71	11405.43
573.87	10984.13
574.03	11063.71
574.20	11066.05
574.36	10949.03
574.52	11082.44
574.68	10953.71
574.84	10902.22
575.01	10745.40
575.17	10815.62
575.33	10801.57
575.49	10916.26
575.65	10956.05
575.82	10707.95
575.98	10647.10
576.14	10717.31
576.30	11021.58
576.46	10853.06
576.62	11042.65
576.79	11037.97
576.95	10806.25
577.11	10813.28
577.27	10862.43
577.43	10846.04
577.59	10731.36
577.75	10621.35
577.92	10349.85
578.08	10321.76
578.24	10562.84
578.40	10548.79
578.56	10750.08
578.72	10850.72
578.88	10860.09
579.04	10829.66
579.21	10906.90
579.37	10949.03
579.53	11162.01
579.69	10754.76
579.85	10853.06
580.01	11143.29
580.17	10899.87
580.33	10747.74
580.49	11098.82
580.65	10937.32
580.82	11023.92
580.98	10885.83
581.14	10967.75
581.30	10876.47
581.46	10738.38
581.62	11096.48
581.78	11122.23
581.94	11028.60
582.10	11187.76
582.26	11241.59
582.42	11005.20
582.58	11115.20
582.74	10841.36
582.90	11075.42
583.06	10923.28
583.22	10932.64
583.38	11007.54
583.54	10951.37
583.70	10946.69
583.86	10832.00
584.02	10841.36
584.18	10906.90
584.34	10839.02
584.50	10934.98
584.66	10747.74
584.82	10600.29
584.98	10546.45
585.14	10359.21
585.30	10518.37
585.46	10340.49
585.62	10186.01
585.78	10303.04
585.94	10106.43
586.10	10331.12
586.26	10396.66
586.42	10527.73
586.58	10579.22
586.74	10333.47
586.90	10485.60
587.06	10281.97
587.22	10232.82
587.38	9914.51
587.54	9975.36
587.70	9713.22
587.86	9523.64
588.02	8992.34
588.18	8814.46
588.34	8634.24
588.49	8088.89
588.65	7515.46
588.81	7459.29
588.97	7613.76
589.13	7538.87
589.29	7262.68
589.45	7302.47
589.61	7604.40
589.77	7936.76
589.93	8194.22
590.08	8355.71
590.24	8629.56
590.40	8667.00
590.56	8741.90
590.72	8699.77
590.88	8636.58
591.04	8702.11
591.20	8704.45
591.35	8461.04
591.51	8290.18
591.67	8367.42
591.83	8243.37
591.99	8367.42
592.15	8346.35
592.31	8545.30
592.46	9034.47
592.62	9004.04
592.78	8929.14
592.94	9088.30
593.10	8903.40
593.26	9483.85
593.41	9413.63
593.57	9118.73
593.73	8664.66
593.89	8334.65
594.05	8196.56
594.20	7953.14
594.36	8006.97
594.52	7768.24
594.68	8116.98
594.84	8238.69
594.99	8592.11
595.15	8746.58
595.31	8954.89
595.47	8723.18
595.62	8863.61
595.78	8971.27
595.94	9095.32
596.10	9153.84
596.25	8905.74
596.41	8851.91
596.57	8493.80
596.73	8730.20
596.88	8868.29
597.04	9085.96
597.20	8868.29
597.36	8706.79
597.51	8585.08
597.67	8982.98
597.83	8997.02
597.99	9130.43
598.14	8999.36
598.30	8828.50
598.46	9137.45
598.61	9078.94
598.77	8933.82
598.93	9057.87
599.09	8936.17
599.24	9483.85
599.40	9298.95
599.56	9296.61
599.71	8985.32
599.87	9217.03
600.03	9245.12
600.18	9205.33
600.34	9263.84
600.50	9317.67
600.65	9050.85
600.81	9273.20
600.97	9460.45
601.12	9408.95
601.28	9125.75
601.44	9163.20
601.59	9074.26
601.75	9172.56
601.91	9069.58
602.06	9301.29
602.22	9261.50
602.37	9048.51
602.53	9245.12
602.69	9373.85
602.84	9399.59
603.00	9317.67
603.16	9479.17
603.31	9483.85
603.47	9453.42
603.62	9434.70
603.78	9497.89
603.94	9350.44
604.09	9415.98
604.25	9338.74
604.40	9432.36
604.56	9469.81
604.71	9486.19
604.87	9282.56
605.03	9266.18
605.18	9350.44
605.34	9341.08
605.49	8987.66
605.65	9137.45
605.80	9291.93
605.96	9312.99
606.12	9303.63
606.27	9256.82
606.43	9055.53
606.58	9025.11
606.74	9327.03
606.89	9163.20
607.05	9420.66
607.20	9275.54
607.36	8999.36
607.51	9219.37
607.67	9048.51
607.82	8947.87
607.98	9156.18
608.13	8877.65
608.29	8966.59
608.44	9025.11
608.60	8938.51
608.75	9006.38
608.91	8997.02
609.06	8828.50
609.22	8854.25
609.37	8964.25
609.53	9013.40
609.68	8966.59
609.84	8879.99
609.99	8812.12
610.15	8901.06
610.30	9004.04
610.46	9193.62
610.61	9341.08
610.76	9334.06
610.92	9579.81
611.07	9640.67
611.23	9783.44
611.38	9516.62
611.54	9298.95
611.69	9362.14
611.84	9156.18
612.00	8975.95
612.15	8718.50
612.31	8851.91
612.46	8795.73
612.62	8961.91
612.77	8812.12
612.92	8814.46
613.08	8549.98
613.23	8589.77
613.39	8442.31
613.54	8212.94
613.69	8351.03
613.85	8491.46
614.00	8432.95
614.15	8589.77
614.31	8381.46
614.46	8709.13
614.62	8587.43
614.77	8781.69
614.92	8418.91
615.08	8545.30
615.23	8449.33
615.38	8369.76
615.54	8393.16
615.69	8032.72
615.84	7964.84
616.00	7913.35
616.15	7801.01
616.30	8114.64
616.46	8025.70
616.61	8116.98
616.76	8091.23
616.92	8070.17
617.07	8051.44
617.22	8100.59
617.37	7990.59
617.53	7995.27
617.68	8006.97
617.83	8112.30
617.99	8238.69
618.14	8287.84
618.29	8290.18
618.45	8196.56
618.60	7967.18
618.75	8121.66
618.90	7742.49
619.06	8039.74
619.21	7988.25
619.36	8056.12
619.51	8079.53
619.67	7969.52
619.82	7967.18
619.97	8011.65
620.12	7885.26
620.28	8044.42
620.43	8074.85
620.58	8100.59
620.73	8173.15
620.89	7882.92
621.04	8009.31
621.19	7815.05
621.34	7758.88
621.49	7618.44
621.65	7604.40
621.80	7733.13
621.95	7796.32
622.10	7885.26
622.25	7644.19
622.41	7658.23
622.56	7763.56
622.71	7691.00
622.86	7412.48
623.01	7609.08
623.16	7669.94
623.32	7545.89
623.47	7456.95
623.62	7604.40
623.77	7742.49
623.92	7379.71
624.07	7295.45
624.23	7414.82
624.38	7391.41
624.53	7143.32
624.68	7330.56
624.83	7412.48
624.98	7258.00
625.13	7030.97
625.29	7211.19
625.44	7157.36
625.59	7148.00
625.74	7208.85
625.89	7190.13
626.04	7159.70
626.19	7180.76
626.34	7084.80
626.49	7131.61
626.65	7246.30
626.80	7260.34
626.95	7187.79
627.10	7119.91
627.25	7019.27
627.40	6516.05
627.55	6413.07
627.70	6228.17
627.85	6195.40
628.00	6317.11
628.15	6518.39
628.30	6654.14
628.45	6626.06
628.60	6750.10
628.76	6705.63
628.91	6787.55
629.06	6614.35
629.21	6548.82
629.36	6696.27
629.51	6602.65
629.66	6616.69
629.81	6457.54
629.96	6530.09
630.11	6642.44
630.26	6675.21
630.41	6789.89
630.56	6806.28
630.71	6789.89
630.86	6677.55
631.01	6885.86
631.16	6668.19
631.31	6497.33
631.46	6307.74
631.61	6314.77
631.76	6359.24
631.91	6455.20
632.06	6354.55
632.21	6597.97
632.36	6677.55
632.51	6544.14
632.66	6623.72
632.81	6644.78
632.96	6792.23
633.10	6771.17
633.25	6560.52
633.40	6532.44
633.55	6609.67
633.70	6422.43
633.85	6424.77
634.00	6567.54
634.15	6399.02
634.30	6422.43
634.45	6766.49
634.60	6593.29
634.75	6642.44
634.90	6471.58
635.05	6497.33
635.19	6537.12
635.34	6803.94
635.49	6621.38
635.64	6452.86
635.79	6431.79
635.94	6321.79
636.09	6406.05
636.24	6562.86
636.39	6349.87
636.53	6471.58
636.68	6576.91
636.83	6464.56
636.98	6417.75
637.13	6417.75
637.28	6722.02
637.43	6513.71
637.57	6455.20
637.72	6406.05
637.87	6387.32
638.02	6403.71
638.17	6612.01
638.32	6312.42
638.46	6455.20
638.61	6429.45
638.76	6317.11
638.91	6448.18
639.06	6115.82
639.20	6296.04
639.35	6307.74
639.50	6211.78
639.65	6300.72
639.80	6069.01
639.94	6263.27
640.09	6490.31
640.24	6307.74
640.39	6204.76
640.54	6221.14
640.68	6134.54
640.83	6232.85
640.98	6066.67
641.13	6197.74
641.27	6274.98
641.42	6188.38
641.57	6253.91
641.72	6150.93
641.86	6225.82
642.01	6153.27
642.16	6129.86
642.31	6186.04
642.45	6342.85
642.60	6083.05
642.75	6036.24
642.90	6050.28
643.04	5792.83
643.19	5900.49
643.34	6003.47
643.48	6169.65
643.63	5860.70
643.78	6061.99
643.93	6001.13
644.07	5940.28
644.22	5956.66
644.37	5973.05
644.51	5926.24
644.66	5860.70
644.81	5991.77
644.95	5830.27
645.10	5720.27
645.25	5731.97
645.39	5722.61
645.54	5809.21
645.69	5633.67
645.83	5509.62
645.98	5518.98
646.13	5427.70
646.27	5556.43
646.42	5294.29
646.57	5256.84
646.71	5179.61
646.86	5256.84
647.00	5200.67
647.15	4830.87
647.30	5062.58
647.44	4891.72
647.59	4868.31
647.74	4938.53
647.88	4833.21
648.03	4919.81
648.17	4809.80
648.32	5015.77
648.47	5071.94
648.61	5004.07
648.76	5121.09
648.90	5071.94
649.05	4847.25
649.20	4624.90
649.34	4643.62
649.49	4805.12
649.63	4997.04
649.78	5165.56
649.92	5373.87
650.07	5432.38
650.21	5434.72
650.36	5549.41
650.51	5514.30
650.65	5455.79
650.80	5626.65
650.94	5394.93
651.09	5238.12
651.23	4908.10
651.38	4601.49
651.52	4561.70
651.67	4608.51
651.81	4755.97
651.96	4882.36
652.10	4975.98
652.25	5050.88
652.39	5233.44
652.54	5270.89
652.68	5352.81
652.83	5425.36
652.97	5273.23
653.12	5228.76
653.26	5207.69
653.41	5111.73
653.55	5224.08
653.70	5233.44
653.84	5210.03
653.99	5231.10
654.13	5111.73
654.27	5146.84
654.42	5135.14
654.56	4929.17
654.71	4978.32
654.85	4781.71
655.00	4737.24
655.14	4643.62
655.29	4716.18
655.43	4648.30
655.57	4578.09
655.72	4339.35
655.86	4159.13
656.01	3878.27
656.15	3625.49
656.30	3552.93
656.44	3960.19
656.58	4224.67
656.73	4393.19
656.87	4596.81
657.01	4608.51
657.16	4664.69
657.30	4580.43
657.45	4765.33
657.59	5027.47
657.73	4947.89
657.88	4940.87
658.02	5015.77
658.16	4931.51
658.31	4873.00
658.45	4734.90
658.60	4903.42
658.74	4931.51
658.88	5100.03
659.03	4823.84
659.17	4915.12
659.31	4961.94
659.46	4990.02
659.60	5130.45
659.74	4959.60
659.89	4863.63
660.03	5029.81
660.17	5048.54
660.32	4987.68
660.46	5067.26
660.60	4926.83
660.74	4877.68
660.89	4865.97
661.03	5027.47
661.17	4882.36
661.32	4973.64
661.46	5121.09
661.60	4917.47
661.74	5153.86
661.89	5083.64
662.03	5142.16
662.17	4777.03
662.31	5085.98
662.46	4992.36
662.60	4933.85
662.74	4854.27
662.88	4954.91
663.03	4812.14
663.17	4636.60
663.31	4816.82
663.45	4807.46
663.60	4912.78
663.74	4706.82
663.88	4643.62
664.02	4842.57
664.17	4784.06
664.31	4774.69
664.45	4835.55
664.59	4896.40
664.73	4779.37
664.88	4840.23
665.02	4753.63
665.16	4748.95
665.30	4760.65
665.44	4739.58
665.59	4819.16
665.73	4533.62
665.87	4870.65
666.01	4690.43
666.15	4571.07
666.29	4699.80
666.44	4711.50
666.58	4564.04
666.72	4636.60
666.86	4643.62
667.00	4645.96
667.14	4650.64
667.28	4636.60
667.43	4550.00
667.57	4592.13
667.71	4465.74
667.85	4732.56
667.99	4489.15
668.13	4479.79
668.27	4681.07
668.41	4510.21
668.56	4648.30
668.70	4622.56
668.84	4510.21
668.98	4596.81
669.12	4451.70
669.26	4510.21
669.40	4512.55
669.54	4372.12
669.68	4519.57
669.82	4456.38
669.96	4435.32
670.10	4418.93
670.25	4475.10
670.39	4362.76
670.53	4435.32
670.67	4365.10
670.81	4285.52
670.95	4418.93
671.09	4318.29
671.23	4402.55
671.37	4409.57
671.51	4386.16
671.65	4332.33
671.79	4147.43
671.93	4203.60
672.07	4201.26
672.21	4280.84
672.35	4030.40
672.49	4344.03
672.63	4374.46
672.77	4156.79
672.91	4299.56
673.05	4135.73
673.19	4236.37
673.33	4219.99
673.47	4189.56
673.61	4124.02
673.75	4145.09
673.89	4215.30
674.03	4203.60
674.17	4236.37
674.31	4121.68
674.45	4196.58
674.59	4142.75
674.73	3908.69
674.87	3960.19
675.01	4030.40
675.15	3964.87
675.29	4053.81
675.43	3978.91
675.56	4107.64
675.70	3941.46
675.84	4007.00
675.98	3892.31
676.12	3927.42
676.26	3964.87
676.40	3911.04
676.54	3819.75
676.68	3796.35
676.82	3765.92
676.96	3805.71
677.10	3936.78
677.23	3955.51
677.37	3901.67
677.51	3758.90
677.65	3946.14
677.79	3836.14
677.93	3779.97
678.07	3850.18
678.21	3740.18
678.34	3698.05
678.48	3716.77
678.62	3775.28
678.76	3702.73
678.90	3754.22
679.04	3644.21
679.18	3674.64
679.31	3648.90
679.45	3669.96
679.59	3669.96
679.73	3648.90
679.87	3480.38
680.00	3676.98
680.14	3494.42
680.28	3501.44
680.42	3632.51
680.56	3536.55
680.70	3559.95
680.83	3557.61
680.97	3679.32
681.11	3468.67
681.25	3473.36
681.39	3471.01
681.52	3550.59
681.66	3543.57
681.80	3487.40
681.94	3428.88
682.07	3386.76
682.21	3382.07
682.35	3304.84
682.49	3300.16
682.62	3295.47
682.76	3260.37
682.90	3365.69
683.04	3358.67
683.17	3382.07
683.31	3318.88
683.45	3433.57
683.59	3330.58
683.72	3426.54
683.86	3251.00
684.00	3096.53
684.13	3112.91
684.27	3129.30
684.41	3112.91
684.55	3016.95
684.68	3251.00
684.82	2995.89
684.96	3049.72
685.09	3033.33
685.23	3066.10
685.37	3227.60
685.50	3042.70
685.64	2963.12
685.78	2979.50
685.91	2995.89
686.05	3091.85
686.19	2967.80
686.32	2928.01
686.46	2616.72
686.60	2270.32
686.73	2052.65
686.87	1811.57
687.01	1654.76
687.14	1668.80
687.28	1631.35
687.42	1727.32
687.55	1921.58
687.69	2092.44
687.82	2263.30
687.96	2363.94
688.10	2523.10
688.23	2438.84
688.37	2569.91
688.50	2284.36
688.64	2221.17
688.78	2172.02
688.91	2228.19
689.05	2188.40
689.18	2101.80
689.32	2129.89
689.46	2169.68
689.59	2167.34
689.73	2193.08
689.86	2167.34
690.00	2174.36
690.13	2197.76
690.27	2230.53
690.41	2256.28
690.54	2251.60
690.68	2279.68
690.81	2270.32
690.95	2167.34
691.08	2218.83
691.22	2188.40
691.35	2148.61
691.49	2246.91
691.62	2244.57
691.76	2230.53
691.89	2195.42
692.03	2097.12
692.16	2155.63
692.30	2172.02
692.43	1959.03
692.57	2026.90
692.70	1980.09
692.84	1905.20
692.97	1809.23
693.11	1905.20
693.24	1870.09
693.38	2062.01
693.51	1881.79
693.65	1832.64
693.78	1867.75
693.92	1720.29
694.05	1715.61
694.19	1741.36
694.32	1713.27
694.45	1877.11
694.59	1884.13
694.72	1853.70
694.86	1914.56
694.99	1774.13
695.13	1825.62
695.26	1823.28
695.39	1818.60
695.53	1870.09
695.66	1769.44
695.80	1804.55
695.93	1802.21
696.07	1832.64
696.20	1879.45
696.33	1963.71
696.47	2024.56
696.60	2064.35
696.73	2038.61
696.87	1987.11
697.00	2003.50
697.14	1982.43
697.27	2038.61
697.40	2047.97
697.54	1949.67
697.67	1942.64
697.80	1874.77
697.94	1879.45
698.07	1860.73
698.21	1902.86
698.34	1898.17
698.47	1785.83
698.61	1743.70
698.74	1673.48
698.87	1717.95
699.01	1675.82
699.14	1614.97
699.27	1668.80
699.40	1755.40
699.54	1645.40
699.67	1579.86
699.80	1631.35
699.94	1638.38
700.07	1551.78
700.20	1511.99
700.34	1474.54
700.47	1493.26
700.60	1399.64
700.73	1490.92
700.87	1558.80
701.00	1600.93
701.13	1540.07
701.26	1519.01
701.40	1479.22
701.53	1404.32
701.66	1514.33
701.79	1537.73
701.93	1561.14
702.06	1511.99
702.19	1460.49
702.32	1502.62
702.46	1411.34
702.59	1425.39
702.72	1397.30
702.85	1509.65
702.99	1418.36
703.12	1586.88
703.25	1572.84
703.38	1685.19
703.51	1598.59
703.65	1486.24
703.78	1495.60
703.91	1493.26
704.04	1472.20
704.17	1521.35
704.31	1490.92
704.44	1474.54
704.57	1579.86
704.70	1472.20
704.83	1479.22
704.96	1432.41
705.10	1434.75
705.23	1472.20
>>>>>End Processed Spectral Data<<<<<
