SpectraSuite Data File
++++++++++++++++++++++++++++++++++++
Date: Fri Oct 04 11:44:27 GMT-05:00 2013
User: price-jones
Dark Spectrum Present: No
Reference Spectrum Present: No
Number of Sampled Component Spectra: 1
Spectrometers: USB2+H05261
Integration Time (usec): 100000 (USB2+H05261)
Spectra Averaged: 1 (USB2+H05261)
Boxcar Smoothing: 0 (USB2+H05261)
Correct for Electrical Dark: No (USB2+H05261)
Strobe/Lamp Enabled: No (USB2+H05261)
Correct for Detector Non-linearity: No (USB2+H05261)
Correct for Stray Light: No (USB2+H05261)
Number of Pixels in Processed Spectrum: 2048
>>>>>Begin Processed Spectral Data<<<<<
365.73	32.77
365.92	32.77
366.12	32.77
366.32	0.00
366.52	0.00
366.72	0.00
366.91	0.00
367.11	0.00
367.31	0.00
367.51	0.00
367.70	0.00
367.90	0.00
368.10	0.00
368.30	0.00
368.49	0.00
368.69	0.00
368.89	0.00
369.09	0.00
369.28	0.00
369.48	0.00
369.68	0.00
369.87	14.04
370.07	0.00
370.27	98.30
370.47	128.73
370.66	390.87
370.86	451.72
371.06	510.24
371.25	430.66
371.45	404.91
371.65	470.45
371.84	416.62
372.04	388.53
372.24	433.00
372.44	489.17
372.63	486.83
372.83	524.28
373.03	444.70
373.22	425.98
373.42	440.02
373.62	489.17
373.81	543.00
374.01	444.70
374.21	456.40
374.40	484.49
374.60	489.17
374.79	528.96
374.99	517.26
375.19	561.73
375.38	582.79
375.58	514.92
375.78	519.60
375.97	550.03
376.17	557.05
376.37	507.90
376.56	592.16
376.76	540.66
376.95	613.22
377.15	667.05
377.35	669.39
377.54	704.50
377.74	718.54
377.93	823.87
378.13	678.76
378.33	645.99
378.52	599.18
378.72	678.76
378.91	606.20
379.11	575.77
379.31	517.26
379.50	566.41
379.70	638.97
379.89	648.33
380.09	706.84
380.28	704.50
380.48	690.46
380.68	641.31
380.87	739.61
381.07	653.01
381.26	636.63
381.46	599.18
381.65	496.19
381.85	592.16
382.04	456.40
382.24	458.74
382.43	477.47
382.63	409.59
382.83	390.87
383.02	526.62
383.22	510.24
383.41	482.15
383.61	629.60
383.80	641.31
384.00	620.24
384.19	678.76
384.39	648.33
384.58	648.33
384.78	702.16
384.97	664.71
385.17	603.86
385.36	648.33
385.56	603.86
385.75	608.54
385.95	589.82
386.14	807.48
386.34	704.50
386.53	685.78
386.72	671.73
386.92	711.52
387.11	725.57
387.31	720.88
387.50	699.82
387.70	669.39
387.89	730.25
388.09	690.46
388.28	711.52
388.48	653.01
388.67	786.42
388.86	767.70
389.06	784.08
389.25	898.77
389.45	887.06
389.64	863.66
389.84	828.55
390.03	795.78
390.22	830.89
390.42	751.31
390.61	915.15
390.81	1029.84
391.00	1015.79
391.19	997.07
391.39	882.38
391.58	950.26
391.78	833.23
391.97	781.74
392.16	737.27
392.36	709.18
392.55	631.94
392.75	568.75
392.94	463.43
393.13	449.38
393.33	554.71
393.52	645.99
393.71	737.27
393.91	718.54
394.10	774.72
394.29	884.72
394.49	952.60
394.68	983.02
394.88	1025.15
395.07	968.98
395.26	1008.77
395.46	922.17
395.65	966.64
395.84	777.06
396.04	744.29
396.23	601.52
396.42	557.05
396.62	608.54
396.81	587.47
397.00	657.69
397.19	891.74
397.39	1020.47
397.58	1074.31
397.77	1188.99
397.97	1186.65
398.16	1240.48
398.35	1355.17
398.55	1217.08
398.74	1266.23
398.93	1373.89
399.12	1329.42
399.32	1383.26
399.51	1270.91
399.70	1418.36
399.90	1306.02
400.09	1334.11
400.28	1310.70
400.47	1458.15
400.67	1416.02
400.86	1467.52
401.05	1416.02
401.24	1437.09
401.44	1519.01
401.63	1556.46
401.82	1500.28
402.01	1519.01
402.21	1568.16
402.40	1542.41
402.59	1497.94
402.78	1434.75
402.97	1451.13
403.17	1472.20
403.36	1430.07
403.55	1633.69
403.74	1472.20
403.93	1570.50
404.13	1561.14
404.32	1502.62
404.51	1577.52
404.70	1572.84
404.89	1490.92
405.09	1629.01
405.28	1437.09
405.47	1425.39
405.66	1483.90
405.85	1497.94
406.05	1401.98
406.24	1373.89
406.43	1430.07
406.62	1547.09
406.81	1640.72
407.00	1561.14
407.20	1516.67
407.39	1488.58
407.58	1495.60
407.77	1502.62
407.96	1736.68
408.15	1682.85
408.34	1617.31
408.54	1729.66
408.73	1750.72
408.92	1703.91
409.11	1680.50
409.30	1572.84
409.49	1469.86
409.68	1420.71
409.87	1373.89
410.07	1441.77
410.26	1605.61
410.45	1544.75
410.64	1650.08
410.83	1706.25
411.02	1877.11
411.21	1781.15
411.40	1816.26
411.59	1813.92
411.78	1708.59
411.98	1790.51
412.17	1685.19
412.36	1865.41
412.55	1806.89
412.74	1774.13
412.93	1753.06
413.12	1722.63
413.31	1858.39
413.50	1933.28
413.69	1975.41
413.88	1942.64
414.07	1881.79
414.26	1818.60
414.45	1827.96
414.64	1909.88
414.83	1776.47
415.02	1856.04
415.22	1846.68
415.41	1963.71
415.60	2029.24
415.79	1942.64
415.98	2083.08
416.17	1975.41
416.36	2073.71
416.55	1933.28
416.74	1921.58
416.93	1909.88
417.12	1825.62
417.31	1912.22
417.50	1930.94
417.69	1973.07
417.88	1961.37
418.07	2008.18
418.26	1926.26
418.45	2008.18
418.64	1937.96
418.83	2122.87
419.02	2036.27
419.21	1961.37
419.39	2062.01
419.58	1820.94
419.77	1753.06
419.96	1856.04
420.15	2197.76
420.34	2071.37
420.53	2047.97
420.72	2129.89
420.91	2176.70
421.10	2193.08
421.29	2111.16
421.48	1966.05
421.67	2139.25
421.86	2033.93
422.05	1973.07
422.24	1661.78
422.43	1708.59
422.61	1851.36
422.80	1954.35
422.99	2038.61
423.18	1916.90
423.37	2045.63
423.56	2104.14
423.75	2029.24
423.94	1959.03
424.13	1858.39
424.32	1909.88
424.50	1949.67
424.69	1977.75
424.88	1987.11
425.07	1898.17
425.26	1933.28
425.45	1900.52
425.64	1834.98
425.83	1891.15
426.01	1966.05
426.20	2092.44
426.39	2026.90
426.58	1867.75
426.77	1795.19
426.96	1659.44
427.15	1851.36
427.33	1963.71
427.52	1839.66
427.71	2005.84
427.90	1954.35
428.09	1987.11
428.28	1820.94
428.46	1811.57
428.65	1802.21
428.84	1825.62
429.03	1914.56
429.22	1750.72
429.40	1717.95
429.59	1554.12
429.78	1458.15
429.97	1458.15
430.16	1334.11
430.34	1406.66
430.53	1406.66
430.72	1458.15
430.91	1535.39
431.10	1912.22
431.28	2029.24
431.47	2286.70
431.66	2333.51
431.85	2108.82
432.03	2080.74
432.22	2022.22
432.41	1940.30
432.60	2078.40
432.79	2214.15
432.97	2298.41
433.16	2211.81
433.35	2169.68
433.54	1863.07
433.72	1741.36
433.91	1809.23
434.10	2026.90
434.28	2150.95
434.47	2207.13
434.66	2146.27
434.85	2242.23
435.03	2153.29
435.22	2518.42
435.41	2899.92
435.59	2911.63
435.78	2808.64
435.97	2537.14
436.16	2473.95
436.34	2394.37
436.53	2305.43
436.72	2401.39
436.90	2190.74
437.09	2120.53
437.28	2176.70
437.46	2235.21
437.65	2193.08
437.84	2122.87
438.02	1942.64
438.21	1970.73
438.40	1998.82
438.58	2108.82
438.77	2242.23
438.96	2118.18
439.14	2422.45
439.33	2338.20
439.52	2462.24
439.70	2293.72
439.89	2363.94
440.08	2246.91
440.26	2211.81
440.45	2232.87
440.63	2443.52
440.82	2628.42
441.01	2504.37
441.19	2497.35
441.38	2518.42
441.57	2693.96
441.75	2677.57
441.94	2553.52
442.12	2675.23
442.31	2628.42
442.50	2593.31
442.68	2656.51
442.87	2710.34
443.05	2590.97
443.24	2635.44
443.43	2738.43
443.61	2708.00
443.80	2682.25
443.98	2616.72
444.17	2443.52
444.35	2818.00
444.54	2738.43
444.73	2663.53
444.91	2820.35
445.10	2668.21
445.28	2548.84
445.47	2457.56
445.65	2476.29
445.84	2651.83
446.02	2700.98
446.21	2546.50
446.39	2729.06
446.58	2686.94
446.77	2628.42
446.95	2686.94
447.14	2843.75
447.32	2883.54
447.51	2759.49
447.69	2693.96
447.88	2649.49
448.06	2654.17
448.25	2808.64
448.43	2820.35
448.62	2780.56
448.80	2719.70
448.99	2649.49
449.17	2715.02
449.36	2719.70
449.54	2878.86
449.73	2874.18
449.91	3021.63
450.10	2932.69
450.28	2986.52
450.46	3131.64
450.65	3101.21
450.83	2918.65
451.02	2871.84
451.20	3047.38
451.39	2899.92
451.57	2878.86
451.76	2848.43
451.94	2820.35
452.13	2874.18
452.31	2822.69
452.49	2480.97
452.68	2656.51
452.86	2677.57
453.05	2712.68
453.23	2740.77
453.42	2600.34
453.60	2820.35
453.78	3033.33
453.97	2825.03
454.15	2796.94
454.34	2700.98
454.52	2801.62
454.70	2705.66
454.89	2796.94
455.07	2803.96
455.26	2855.45
455.44	2956.10
455.62	2792.26
455.81	2897.58
455.99	2963.12
456.17	2878.86
456.36	2862.48
456.54	2923.33
456.73	2897.58
456.91	2928.01
457.09	2984.18
457.28	3026.31
457.46	3035.67
457.64	2937.37
457.83	2874.18
458.01	2808.64
458.19	2958.44
458.38	2815.66
458.56	3054.40
458.74	2923.33
458.93	2977.16
459.11	2944.39
459.29	2747.79
459.48	2902.26
459.66	2949.08
459.84	2855.45
460.03	3075.46
460.21	3052.06
460.39	2991.20
460.57	3012.27
460.76	3129.30
460.94	3126.96
461.12	3014.61
461.31	2995.89
461.49	3040.36
461.67	3026.31
461.85	3126.96
462.04	3162.06
462.22	3529.53
462.40	3148.02
462.59	3028.65
462.77	3052.06
462.95	3124.62
463.13	3066.10
463.32	3035.67
463.50	3098.87
463.68	3077.80
463.86	3068.44
464.05	3026.31
464.23	2956.10
464.41	2993.55
464.59	2920.99
464.78	2895.24
464.96	3033.33
465.14	2902.26
465.32	3080.14
465.50	3124.62
465.69	3126.96
465.87	3091.85
466.05	2883.54
466.23	2883.54
466.41	2850.77
466.60	2869.50
466.78	2850.77
466.96	2897.58
467.14	2834.39
467.32	3190.15
467.51	3080.14
467.69	2883.54
467.87	2801.62
468.05	3063.76
468.23	3112.91
468.41	2932.69
468.60	2953.76
468.78	3026.31
468.96	3016.95
469.14	3040.36
469.32	3047.38
469.50	2853.11
469.69	2956.10
469.87	2897.58
470.05	3033.33
470.23	2918.65
470.41	2991.20
470.59	2930.35
470.77	2977.16
470.95	2902.26
471.14	3143.34
471.32	3087.17
471.50	3199.51
471.68	3253.34
471.86	3302.50
472.04	3243.98
472.22	3396.12
472.40	3045.04
472.58	3054.40
472.77	2960.78
472.95	3218.24
473.13	3293.13
473.31	3197.17
473.49	3098.87
473.67	3243.98
473.85	3082.49
474.03	3375.05
474.21	3344.63
474.39	3428.88
474.57	3297.81
474.75	3391.44
474.93	3255.69
475.12	3222.92
475.30	3169.09
475.48	3349.31
475.66	3260.37
475.84	3225.26
476.02	3229.94
476.20	3169.09
476.38	3351.65
476.56	3349.31
476.74	3417.18
476.92	3403.14
477.10	3295.47
477.28	3496.76
477.46	3358.67
477.64	3403.14
477.82	3543.57
478.00	3613.79
478.18	3641.87
478.36	3543.57
478.54	3522.51
478.72	3494.42
478.90	3534.21
479.08	3852.52
479.26	3693.37
479.44	3831.46
479.62	3707.41
479.80	3735.50
479.98	3716.77
480.16	3777.62
480.34	3737.84
480.52	3791.67
480.70	3868.91
480.88	3777.62
481.06	3953.16
481.24	3868.91
481.41	4004.66
481.59	3969.55
481.77	4100.62
481.95	3985.93
482.13	4159.13
482.31	3950.82
482.49	4093.60
482.67	3981.25
482.85	4016.36
483.03	4093.60
483.21	4126.36
483.39	4166.15
483.57	4051.47
483.74	3995.29
483.92	4166.15
484.10	3913.38
484.28	4168.49
484.46	4208.28
484.64	4147.43
484.82	4227.01
485.00	4119.34
485.18	4025.72
485.35	3974.23
485.53	3735.50
485.71	3335.26
485.89	3419.52
486.07	3414.84
486.25	3761.24
486.43	3936.78
486.61	4060.83
486.78	4070.19
486.96	3964.87
487.14	4238.71
487.32	4243.39
487.50	4437.66
487.68	4369.78
487.85	4564.04
488.03	4524.26
488.21	4535.96
488.39	4531.28
488.57	4351.06
488.75	4320.63
488.92	4765.33
489.10	4690.43
489.28	4898.74
489.46	4856.61
489.64	5055.56
489.81	5071.94
489.99	5034.49
490.17	4980.66
490.35	5118.75
490.53	4961.94
490.70	4978.32
490.88	4903.42
491.06	4983.00
491.24	5111.73
491.41	5034.49
491.59	4657.67
491.77	4638.94
491.95	4557.02
492.13	4821.50
492.30	4865.97
492.48	5083.64
492.66	5275.57
492.84	5376.21
493.01	5118.75
493.19	5057.90
493.37	5076.62
493.54	4880.02
493.72	5043.85
493.90	5104.71
494.08	5338.76
494.25	5600.90
494.43	5509.62
494.61	5547.07
494.79	5612.60
494.96	5504.94
495.14	5558.77
495.32	5177.26
495.49	5123.43
495.67	5371.53
495.85	5687.50
496.02	5809.21
496.20	5724.95
496.38	5687.50
496.55	5586.86
496.73	5734.31
496.91	5839.64
497.09	5694.52
497.26	5865.38
497.44	5565.79
497.62	5614.95
497.79	5434.72
497.97	5303.65
498.14	5329.40
498.32	5448.77
498.50	5621.97
498.67	5809.21
498.85	5687.50
499.03	5701.54
499.20	5823.25
499.38	5621.97
499.56	5626.65
499.73	5713.25
499.91	5699.20
500.08	5511.96
500.26	5315.36
500.44	5385.57
500.61	5579.84
500.79	5418.34
500.97	5427.70
501.14	5486.22
501.32	5298.97
501.49	5394.93
501.67	5338.76
501.84	5413.66
502.02	5500.26
502.20	5451.11
502.37	5633.67
502.55	5675.80
502.72	5675.80
502.90	5631.33
503.07	5523.66
503.25	5350.46
503.43	5203.01
503.60	5053.22
503.78	5027.47
503.95	5111.73
504.13	5380.89
504.30	5643.03
504.48	5746.02
504.65	5640.69
504.83	5834.96
505.01	5933.26
505.18	5827.93
505.36	5907.51
505.53	5867.72
505.71	5905.17
505.88	6179.01
506.06	5809.21
506.23	5914.53
506.41	5497.92
506.58	5856.02
506.76	5671.12
506.93	5806.87
507.11	5717.93
507.28	5734.31
507.46	5650.05
507.63	5540.05
507.81	5687.50
507.98	5394.93
508.16	5743.67
508.33	5837.30
508.50	5942.62
508.68	5966.03
508.85	5933.26
509.03	6153.27
509.20	6078.37
509.38	5879.43
509.55	5675.80
509.73	5701.54
509.90	5998.79
510.08	6001.13
510.25	6033.90
510.42	5884.11
510.60	5898.15
510.77	6101.78
510.95	5919.21
511.12	6106.46
511.30	6289.02
511.47	6317.11
511.64	6258.59
511.82	6284.34
511.99	6179.01
512.17	5961.34
512.34	5839.64
512.51	5987.09
512.69	6120.50
512.86	6108.80
513.04	6162.63
513.21	6083.05
513.38	6092.41
513.56	5991.77
513.73	5778.78
513.90	5720.27
514.08	5750.70
514.25	6043.26
514.43	6026.88
514.60	5757.72
514.77	5776.44
514.95	5914.53
515.12	5886.45
515.29	5996.45
515.47	6296.04
515.64	6073.69
515.81	6111.14
515.99	6005.81
516.16	5685.16
516.33	5327.06
516.51	5064.92
516.68	4926.83
516.85	4873.00
517.03	4968.96
517.20	5289.61
517.37	5795.17
517.54	5940.28
517.72	5881.77
517.89	5469.83
518.06	5088.32
518.24	5207.69
518.41	5434.72
518.58	5785.80
518.75	5832.62
518.93	5823.25
519.10	5755.38
519.27	5856.02
519.45	5923.90
519.62	6113.48
519.79	6129.86
519.96	6111.14
520.14	5937.94
520.31	5951.98
520.48	5853.68
520.65	6019.86
520.83	6239.87
521.00	6211.78
521.17	6099.44
521.34	5959.00
521.52	5944.96
521.69	6090.07
521.86	6408.39
522.03	6052.63
522.20	5959.00
522.38	5832.62
522.55	5912.19
522.72	5879.43
522.89	5853.68
523.07	6050.28
523.24	6045.60
523.41	6134.54
523.58	6122.84
523.75	6197.74
523.92	6366.26
524.10	6452.86
524.27	6359.24
524.44	6441.15
524.61	6066.67
524.78	6263.27
524.96	6064.33
525.13	6085.39
525.30	6209.44
525.47	6200.08
525.64	6406.05
525.81	6225.82
525.98	5832.62
526.16	5551.75
526.33	5472.17
526.50	5432.38
526.67	5102.37
526.84	5343.44
527.01	5593.88
527.18	5781.12
527.36	5921.56
527.53	6064.33
527.70	6097.10
527.87	6223.48
528.04	5970.71
528.21	6071.35
528.38	6249.23
528.55	6401.37
528.72	6340.51
528.89	6494.99
529.07	6455.20
529.24	6253.91
529.41	6115.82
529.58	6061.99
529.75	6134.54
529.92	6057.31
530.09	6258.59
530.26	6279.66
530.43	6305.40
530.60	6277.32
530.77	6401.37
530.94	6483.28
531.11	6366.26
531.28	6139.23
531.46	6399.02
531.63	6249.23
531.80	6333.49
531.97	6122.84
532.14	6171.99
532.31	5806.87
532.48	5551.75
532.65	5727.29
532.82	5935.60
532.99	6162.63
533.16	6218.80
533.33	6326.47
533.50	6193.06
533.67	6221.14
533.84	6029.22
534.01	6197.74
534.18	6015.18
534.35	6300.72
534.52	5963.68
534.69	6183.70
534.86	6162.63
535.03	6326.47
535.20	6382.64
535.37	6342.85
535.54	6445.84
535.71	6324.13
535.88	6462.22
536.05	6160.29
536.22	6204.76
536.38	6125.18
536.55	5942.62
536.72	5987.09
536.89	5832.62
537.06	5947.30
537.23	6183.70
537.40	6333.49
537.57	6300.72
537.74	6232.85
537.91	6417.75
538.08	6253.91
538.25	6118.16
538.42	6403.71
538.59	6300.72
538.75	6097.10
538.92	5959.00
539.09	6193.06
539.26	6043.26
539.43	6038.58
539.60	6160.29
539.77	6113.48
539.94	6092.41
540.11	5877.09
540.28	5865.38
540.44	5884.11
540.61	5942.62
540.78	6005.81
540.95	6211.78
541.12	6263.27
541.29	6434.13
541.46	6562.86
541.62	6583.93
541.79	6434.13
541.96	6389.66
542.13	6204.76
542.30	6576.91
542.47	6497.33
542.63	6179.01
542.80	6349.87
542.97	6342.85
543.14	6244.55
543.31	6197.74
543.48	6361.58
543.64	6726.70
543.81	6787.55
543.98	6494.99
544.15	6464.56
544.32	6129.86
544.48	6494.99
544.65	6392.00
544.82	6502.01
544.99	6483.28
545.16	6270.30
545.32	6459.88
545.49	7037.99
545.66	7660.57
545.83	7653.55
546.00	7346.94
546.16	6923.30
546.33	6544.14
546.50	6291.36
546.67	6511.37
546.83	6382.64
547.00	6183.70
547.17	6179.01
547.34	6204.76
547.50	5996.45
547.67	5879.43
547.84	5928.58
548.00	6207.10
548.17	6235.19
548.34	6136.88
548.51	6148.59
548.67	6249.23
548.84	6195.40
549.01	6005.81
549.18	6076.03
549.34	6141.57
549.51	6104.12
549.68	6174.33
549.84	6188.38
550.01	5940.28
550.18	6045.60
550.34	6080.71
550.51	6155.61
550.68	6097.10
550.84	5851.34
551.01	5823.25
551.18	6047.94
551.34	5846.66
551.51	6045.60
551.68	6052.63
551.84	6012.84
552.01	5973.05
552.18	6122.84
552.34	5764.74
552.51	5830.27
552.68	5692.18
552.84	5706.23
553.01	5738.99
553.18	5844.32
553.34	6031.56
553.51	5975.39
553.67	5937.94
553.84	6071.35
554.01	6087.73
554.17	5785.80
554.34	5830.27
554.51	5959.00
554.67	6134.54
554.84	6160.29
555.00	5947.30
555.17	5830.27
555.33	5907.51
555.50	5968.37
555.67	5865.38
555.83	5717.93
556.00	5837.30
556.16	5834.96
556.33	5530.69
556.50	5504.94
556.66	5549.41
556.83	5607.92
556.99	5411.32
557.16	5701.54
557.32	5699.20
557.49	5551.75
557.65	5673.46
557.82	5710.91
557.98	5750.70
558.15	5664.10
558.32	5589.20
558.48	5411.32
558.65	5350.46
558.81	5561.11
558.98	5364.51
559.14	5528.35
559.31	5488.56
559.47	5575.16
559.64	5547.07
559.80	5488.56
559.97	5502.60
560.13	5460.47
560.30	5593.88
560.46	5755.38
560.63	5804.53
560.79	5783.46
560.96	5678.14
561.12	5537.71
561.29	5343.44
561.45	5338.76
561.61	5448.77
561.78	5692.18
561.94	5502.60
562.11	5558.77
562.27	5476.85
562.44	5582.18
562.60	5483.88
562.77	5551.75
562.93	5687.50
563.10	5607.92
563.26	5348.12
563.42	5556.43
563.59	5455.79
563.75	5556.43
563.92	5418.34
564.08	5502.60
564.24	5547.07
564.41	5486.22
564.57	5661.76
564.74	5416.00
564.90	5500.26
565.07	5467.49
565.23	5530.69
565.39	5203.01
565.56	5268.55
565.72	5142.16
565.88	5083.64
566.05	5310.68
566.21	5416.00
566.38	5158.54
566.54	5376.21
566.70	5383.23
566.87	5460.47
567.03	5416.00
567.19	5404.30
567.36	5394.93
567.52	5245.14
567.68	5200.67
567.85	5139.82
568.01	5029.81
568.17	4945.55
568.34	5041.51
568.50	5036.83
568.66	4908.10
568.83	5076.62
568.99	4929.17
569.15	5043.85
569.32	5053.22
569.48	5071.94
569.64	4957.25
569.81	4938.53
569.97	4971.30
570.13	4915.12
570.30	4887.04
570.46	4947.89
570.62	4887.04
570.78	4692.77
570.95	4812.14
571.11	4910.44
571.27	5004.07
571.43	4931.51
571.60	4922.15
571.76	4830.87
571.92	4994.70
572.09	5060.24
572.25	5055.56
572.41	4917.47
572.57	5069.60
572.74	5032.15
572.90	4917.47
573.06	4994.70
573.22	4844.91
573.38	5020.45
573.55	4968.96
573.71	4966.62
573.87	4814.48
574.03	4954.91
574.20	4926.83
574.36	4891.72
574.52	4854.27
574.68	4770.01
574.84	4725.54
575.01	4671.71
575.17	4739.58
575.33	4809.80
575.49	4786.40
575.65	4847.25
575.82	4819.16
575.98	4725.54
576.14	4894.06
576.30	5034.49
576.46	5109.39
576.62	5046.20
576.79	5011.09
576.95	4940.87
577.11	5064.92
577.27	4901.08
577.43	4875.34
577.59	4805.12
577.75	4704.48
577.92	4812.14
578.08	4594.47
578.24	4643.62
578.40	4777.03
578.56	4833.21
578.72	5008.75
578.88	5053.22
579.04	5001.72
579.21	5062.58
579.37	5095.35
579.53	4784.06
579.69	4807.46
579.85	4887.04
580.01	5057.90
580.17	4854.27
580.33	4898.74
580.49	4973.64
580.65	4968.96
580.82	4873.00
580.98	4943.21
581.14	4716.18
581.30	4933.85
581.46	4713.84
581.62	4777.03
581.78	4835.55
581.94	4873.00
582.10	5055.56
582.26	4959.60
582.42	4997.04
582.58	4973.64
582.74	4943.21
582.90	4983.00
583.06	5085.98
583.22	4842.57
583.38	4922.15
583.54	4873.00
583.70	5055.56
583.86	4889.38
584.02	4889.38
584.18	4936.19
584.34	4854.27
584.50	4985.34
584.66	4966.62
584.82	4854.27
584.98	4854.27
585.14	4732.56
585.30	4791.08
585.46	4720.86
585.62	4610.86
585.78	4739.58
585.94	4641.28
586.10	4678.73
586.26	4788.74
586.42	4697.46
586.58	4835.55
586.74	4770.01
586.90	4697.46
587.06	4667.03
587.22	4851.93
587.38	4470.42
587.54	4397.87
587.70	4339.35
587.86	4250.41
588.02	4093.60
588.18	3934.44
588.34	3882.95
588.49	3653.58
588.65	3463.99
588.81	3342.28
588.97	3410.16
589.13	3328.24
589.29	3309.52
589.45	3456.97
589.61	3372.71
589.77	3527.19
589.93	3627.83
590.08	3854.86
590.24	3920.40
590.40	3864.22
590.56	3941.46
590.72	3969.55
590.88	3950.82
591.04	3913.38
591.20	3999.98
591.35	3911.04
591.51	3777.62
591.67	3719.11
591.83	3627.83
591.99	3815.07
592.15	3740.18
592.31	3992.95
592.46	4067.85
592.62	4128.70
592.78	4117.00
592.94	4156.79
593.10	4243.39
593.26	4262.12
593.41	4311.27
593.57	4138.07
593.73	3908.69
593.89	3688.68
594.05	3920.40
594.20	3634.85
594.36	3618.47
594.52	3543.57
594.68	3482.72
594.84	3740.18
594.99	3964.87
595.15	3999.98
595.31	3878.27
595.47	4028.06
595.62	3861.88
595.78	3955.51
595.94	4105.30
596.10	4098.28
596.25	4072.53
596.41	4028.06
596.57	3796.35
596.73	3915.72
596.88	3939.12
597.04	3892.31
597.20	4032.74
597.36	3967.21
597.51	4002.32
597.67	3953.16
597.83	3925.08
597.99	4081.89
598.14	4084.23
598.30	3901.67
598.46	3957.85
598.61	4105.30
598.77	4086.58
598.93	4084.23
599.09	4098.28
599.24	4320.63
599.40	4182.54
599.56	4184.88
599.71	4109.98
599.87	4222.33
600.03	4219.99
600.18	4002.32
600.34	4170.83
600.50	4058.49
600.65	4205.94
600.81	4219.99
600.97	4156.79
601.12	4145.09
601.28	4152.11
601.44	4124.02
601.59	3960.19
601.75	4074.87
601.91	4014.02
602.06	4002.32
602.22	4117.00
602.37	4053.81
602.53	4072.53
602.69	4212.96
602.84	4198.92
603.00	4231.69
603.16	4149.77
603.31	4145.09
603.47	4266.80
603.62	4044.45
603.78	4222.33
603.94	4102.96
604.09	4175.52
604.25	4135.73
604.40	4294.88
604.56	4058.49
604.71	4208.28
604.87	4306.59
605.03	4149.77
605.18	4095.94
605.34	4030.40
605.49	4086.58
605.65	4322.97
605.80	4191.90
605.96	4140.41
606.12	4100.62
606.27	4140.41
606.43	3967.21
606.58	4163.81
606.74	4170.83
606.89	4135.73
607.05	3995.29
607.20	4079.55
607.36	4021.04
607.51	4067.85
607.67	4074.87
607.82	4060.83
607.98	4217.65
608.13	4210.62
608.29	4058.49
608.44	4067.85
608.60	4086.58
608.75	4180.20
608.91	4224.67
609.06	4093.60
609.22	4152.11
609.37	4198.92
609.53	4196.58
609.68	4198.92
609.84	4175.52
609.99	4341.69
610.15	4308.93
610.30	4367.44
610.46	4603.83
610.61	4802.78
610.76	5081.30
610.92	5277.91
611.07	5373.87
611.23	5563.45
611.38	5303.65
611.54	5231.10
611.69	5060.24
611.84	4777.03
612.00	4554.68
612.15	4395.53
612.31	4177.86
612.46	4273.82
612.62	4334.67
612.77	4297.22
612.92	4456.38
613.08	4189.56
613.23	4126.36
613.39	3927.42
613.54	4025.72
613.69	3990.61
613.85	4098.28
614.00	3927.42
614.15	3964.87
614.31	4079.55
614.46	4175.52
614.62	4086.58
614.77	4170.83
614.92	3981.25
615.08	3995.29
615.23	3976.57
615.38	3857.20
615.54	3709.75
615.69	3789.33
615.84	3545.91
616.00	3634.85
616.15	3707.41
616.30	3669.96
616.46	3674.64
616.61	3620.81
616.76	3454.63
616.92	3698.05
617.07	3674.64
617.22	3623.15
617.37	3749.54
617.53	3770.60
617.68	3672.30
617.83	3824.44
617.99	3798.69
618.14	3763.58
618.29	3784.65
618.45	3583.36
618.60	3599.74
618.75	3585.70
618.90	3669.96
619.06	3630.17
619.21	3698.05
619.36	3705.07
619.51	3672.30
619.67	3665.28
619.82	3489.74
619.97	3674.64
620.12	3796.35
620.28	3644.21
620.43	3681.66
620.58	3583.36
620.73	3508.46
620.89	3770.60
621.04	3667.62
621.19	3602.08
621.34	3555.27
621.49	3534.21
621.65	3485.06
621.80	3550.59
621.95	3426.54
622.10	3571.66
622.25	3487.40
622.41	3576.34
622.56	3548.25
622.71	3482.72
622.86	3466.33
623.01	3368.03
623.16	3555.27
623.32	3452.29
623.47	3536.55
623.62	3412.50
623.77	3459.31
623.92	3400.80
624.07	3346.97
624.23	3372.71
624.38	3262.71
624.53	3454.63
624.68	3311.86
624.83	3405.48
624.98	3339.94
625.13	3222.92
625.29	3290.79
625.44	3276.75
625.59	3251.00
625.74	3293.13
625.89	3288.45
626.04	3316.54
626.19	3141.00
626.34	3330.58
626.49	3307.18
626.65	3222.92
626.80	3126.96
626.95	3243.98
627.10	3265.05
627.25	3101.21
627.40	3052.06
627.55	2911.63
627.70	2768.85
627.85	2843.75
628.00	2937.37
628.15	2897.58
628.30	2942.05
628.45	3082.49
628.60	3133.98
628.76	3009.93
628.91	3005.25
629.06	2928.01
629.21	3045.04
629.36	2988.86
629.51	2988.86
629.66	2972.48
629.81	2993.55
629.96	2937.37
630.11	3063.76
630.26	3119.93
630.41	3148.02
630.56	3038.02
630.71	3094.19
630.86	2981.84
631.01	3162.06
631.16	3136.32
631.31	3080.14
631.46	3042.70
631.61	3016.95
631.76	3007.59
631.91	2932.69
632.06	2991.20
632.21	2949.08
632.36	3124.62
632.51	2923.33
632.66	3014.61
632.81	2899.92
632.96	3033.33
633.10	3045.04
633.25	3126.96
633.40	2977.16
633.55	2888.22
633.70	3016.95
633.85	2928.01
634.00	2843.75
634.15	3012.27
634.30	2930.35
634.45	2979.50
634.60	2909.29
634.75	3042.70
634.90	3019.29
635.05	3045.04
635.19	2920.99
635.34	2935.03
635.49	2958.44
635.64	2937.37
635.79	2928.01
635.94	2904.60
636.09	2848.43
636.24	2951.42
636.39	2853.11
636.53	2951.42
636.68	2857.79
636.83	2841.41
636.98	2956.10
637.13	2848.43
637.28	3005.25
637.43	3052.06
637.57	2986.52
637.72	3045.04
637.87	2834.39
638.02	2981.84
638.17	2920.99
638.32	2967.80
638.46	2825.03
638.61	2979.50
638.76	2916.31
638.91	2860.13
639.06	2771.19
639.20	2881.20
639.35	2841.41
639.50	2963.12
639.65	2862.48
639.80	2705.66
639.94	2754.81
640.09	2850.77
640.24	2867.16
640.39	2808.64
640.54	2731.41
640.68	2630.76
640.83	2855.45
640.98	2682.25
641.13	2785.24
641.27	2874.18
641.42	2834.39
641.57	2904.60
641.72	2679.91
641.86	2818.00
642.01	2818.00
642.16	2876.52
642.31	2764.17
642.45	2899.92
642.60	2883.54
642.75	2703.32
642.90	2820.35
643.04	2719.70
643.19	2796.94
643.34	2752.47
643.48	2719.70
643.63	2644.81
643.78	2729.06
643.93	2799.28
644.07	2757.15
644.22	2635.44
644.37	2679.91
644.51	2693.96
644.66	2726.72
644.81	2595.65
644.95	2427.14
645.10	2546.50
645.25	2612.04
645.39	2565.23
645.54	2551.18
645.69	2530.12
645.83	2436.50
645.98	2464.58
646.13	2438.84
646.27	2534.80
646.42	2359.26
646.57	2424.80
646.71	2293.72
646.86	2251.60
647.00	2303.09
647.15	2193.08
647.30	2237.55
647.44	2312.45
647.59	2209.47
647.74	2160.31
647.88	2326.49
648.03	2246.91
648.17	2223.51
648.32	2218.83
648.47	2235.21
648.61	2256.28
648.76	2190.74
648.90	2356.92
649.05	2106.48
649.20	2111.16
649.34	2136.91
649.49	2221.17
649.63	2321.81
649.78	2361.60
649.92	2478.63
650.07	2485.65
650.21	2579.27
650.36	2527.78
650.51	2565.23
650.65	2511.39
650.80	2544.16
650.94	2321.81
651.09	2424.80
651.23	2289.04
651.38	2076.06
651.52	2045.63
651.67	2115.84
651.81	2087.76
651.96	2256.28
652.10	2267.98
652.25	2413.09
652.39	2373.30
652.54	2401.39
652.68	2373.30
652.83	2420.11
652.97	2328.83
653.12	2253.94
653.26	2310.11
653.41	2366.28
653.55	2373.30
653.70	2422.45
653.84	2382.67
653.99	2349.90
654.13	2340.54
654.27	2335.85
654.42	2244.57
654.56	2230.53
654.71	2221.17
654.85	2195.42
655.00	2172.02
655.14	2195.42
655.29	2204.78
655.43	2150.95
655.57	1998.82
655.72	1926.26
655.86	1743.70
656.01	1849.02
656.15	1643.06
656.30	1741.36
656.44	1858.39
656.58	1984.77
656.73	2062.01
656.87	2113.50
657.01	2019.88
657.16	2132.23
657.30	2195.42
657.45	2249.25
657.59	2209.47
657.73	2356.92
657.88	2214.15
658.02	2286.70
658.16	2284.36
658.31	2272.66
658.45	2216.49
658.60	2153.29
658.74	2314.79
658.88	2228.19
659.03	2169.68
659.17	2186.06
659.31	2214.15
659.46	2272.66
659.60	2282.02
659.74	2188.40
659.89	2293.72
660.03	2230.53
660.17	2361.60
660.32	2246.91
660.46	2291.38
660.60	2221.17
660.74	2406.07
660.89	2209.47
661.03	2253.94
661.17	2284.36
661.32	2270.32
661.46	2221.17
661.60	2232.87
661.74	2317.13
661.89	2246.91
662.03	2338.20
662.17	2197.76
662.31	2319.47
662.46	2258.62
662.60	2275.00
662.74	2359.26
662.88	2317.13
663.03	2228.19
663.17	2242.23
663.31	2232.87
663.45	2183.72
663.60	2071.37
663.74	2204.78
663.88	2146.27
664.02	2146.27
664.17	2092.44
664.31	2078.40
664.45	2071.37
664.59	2207.13
664.73	2150.95
664.88	2179.04
665.02	2092.44
665.16	2150.95
665.30	2221.17
665.44	2207.13
665.59	2153.29
665.73	2195.42
665.87	2120.53
666.01	2094.78
666.15	2143.93
666.29	1975.41
666.44	2157.97
666.58	2022.22
666.72	2076.06
666.86	2139.25
667.00	2134.57
667.14	2099.46
667.28	2141.59
667.43	2277.34
667.57	2099.46
667.71	2094.78
667.85	2099.46
667.99	2106.48
668.13	2139.25
668.27	2143.93
668.41	2059.67
668.56	2113.50
668.70	2101.80
668.84	1998.82
668.98	2099.46
669.12	2038.61
669.26	1977.75
669.40	2141.59
669.54	1961.37
669.68	2122.87
669.82	2059.67
669.96	2094.78
670.10	1977.75
670.25	1895.83
670.39	2069.03
670.53	2036.27
670.67	1961.37
670.81	1966.05
670.95	1930.94
671.09	2008.18
671.23	2076.06
671.37	1888.81
671.51	1867.75
671.65	1912.22
671.79	1923.92
671.93	1888.81
672.07	1935.62
672.21	1888.81
672.35	1863.07
672.49	2010.52
672.63	1832.64
672.77	1966.05
672.91	1834.98
673.05	1888.81
673.19	1963.71
673.33	1926.26
673.47	1832.64
673.61	1909.88
673.75	1942.64
673.89	1921.58
674.03	1895.83
674.17	1877.11
674.31	1860.73
674.45	1881.79
674.59	1853.70
674.73	1923.92
674.87	1921.58
675.01	1849.02
675.15	1790.51
675.29	1949.67
675.43	1935.62
675.56	1959.03
675.70	1849.02
675.84	1991.80
675.98	1813.92
676.12	1729.66
676.26	1813.92
676.40	1846.68
676.54	1823.28
676.68	1764.76
676.82	1736.68
676.96	1715.61
677.10	1771.79
677.23	1811.57
677.37	1811.57
677.51	1755.40
677.65	1867.75
677.79	1732.00
677.93	1788.17
678.07	1692.21
678.21	1799.87
678.34	1771.79
678.48	1755.40
678.62	1713.27
678.76	1654.76
678.90	1739.02
679.04	1685.19
679.18	1727.32
679.31	1732.00
679.45	1612.63
679.59	1694.55
679.73	1624.33
679.87	1668.80
680.00	1664.12
680.14	1593.90
680.28	1675.82
680.42	1626.67
680.56	1631.35
680.70	1542.41
680.83	1621.99
680.97	1568.16
681.11	1605.61
681.25	1596.25
681.39	1465.18
681.52	1600.93
681.66	1626.67
681.80	1577.52
681.94	1607.95
682.07	1465.18
682.21	1528.37
682.35	1481.56
682.49	1579.86
682.62	1519.01
682.76	1558.80
682.90	1507.30
683.04	1526.03
683.17	1493.26
683.31	1423.05
683.45	1451.13
683.59	1483.90
683.72	1453.47
683.86	1462.83
684.00	1369.21
684.13	1467.52
684.27	1387.94
684.41	1490.92
684.55	1497.94
684.68	1462.83
684.82	1460.49
684.96	1430.07
685.09	1434.75
685.23	1420.71
685.37	1352.83
685.50	1387.94
685.64	1448.79
685.78	1345.81
685.91	1376.24
686.05	1446.45
686.19	1401.98
686.32	1369.21
686.46	1130.48
686.60	1055.58
686.73	901.11
686.87	826.21
687.01	793.44
687.14	943.24
687.28	760.67
687.42	877.70
687.55	952.60
687.69	1088.35
687.82	1050.90
687.96	1135.16
688.10	1146.86
688.23	1151.54
688.37	1228.78
688.50	1043.88
688.64	1100.05
688.78	1078.99
688.91	976.00
689.05	1048.56
689.18	1032.18
689.32	985.37
689.46	1022.81
689.59	959.62
689.73	1062.60
689.86	1048.56
690.00	1067.28
690.13	1008.77
690.27	1060.26
690.41	978.34
690.54	992.39
690.68	1102.39
690.81	1088.35
690.95	1102.39
691.08	1057.92
691.22	1083.67
691.35	1025.15
691.49	971.32
691.62	1078.99
691.76	1100.05
691.89	973.66
692.03	947.92
692.16	997.07
692.30	905.79
692.43	1004.09
692.57	950.26
692.70	978.34
692.84	983.02
692.97	901.11
693.11	922.17
693.24	830.89
693.38	929.19
693.51	915.15
693.65	858.98
693.78	863.66
693.92	877.70
694.05	777.06
694.19	873.02
694.32	896.43
694.45	807.48
694.59	800.46
694.72	884.72
694.86	915.15
694.99	943.24
695.13	875.36
695.26	919.83
695.39	844.93
695.53	880.04
695.66	933.87
695.80	844.93
695.93	901.11
696.07	884.72
696.20	947.92
696.33	968.98
696.47	896.43
696.60	985.37
696.73	931.53
696.87	1011.11
697.00	1050.90
697.14	1020.47
697.27	1022.81
697.40	910.47
697.54	858.98
697.67	821.53
697.80	880.04
697.94	816.85
698.07	898.77
698.21	933.87
698.34	795.78
698.47	798.12
698.61	758.33
698.74	842.59
698.87	791.10
699.01	826.21
699.14	763.01
699.27	737.27
699.40	880.04
699.54	737.27
699.67	777.06
699.80	683.44
699.94	741.95
700.07	713.86
700.20	758.33
700.34	821.53
700.47	699.82
700.60	697.48
700.73	650.67
700.87	751.31
701.00	704.50
701.13	767.70
701.26	725.57
701.40	711.52
701.53	730.25
701.66	657.69
701.79	748.97
701.93	599.18
702.06	720.88
702.19	753.65
702.32	741.95
702.46	669.39
702.59	709.18
702.72	716.20
702.85	692.80
702.99	793.44
703.12	849.61
703.25	734.93
703.38	763.01
703.51	697.48
703.65	716.20
703.78	599.18
703.91	706.84
704.04	793.44
704.17	798.12
704.31	751.31
704.44	765.36
704.57	674.07
704.70	798.12
704.83	791.10
704.96	627.26
705.10	660.03
705.23	667.05
>>>>>End Processed Spectral Data<<<<<
