SpectraSuite Data File
++++++++++++++++++++++++++++++++++++
Date: Fri Oct 04 11:44:24 GMT-05:00 2013
User: price-jones
Dark Spectrum Present: No
Reference Spectrum Present: No
Number of Sampled Component Spectra: 1
Spectrometers: USB2+H05261
Integration Time (usec): 100000 (USB2+H05261)
Spectra Averaged: 1 (USB2+H05261)
Boxcar Smoothing: 0 (USB2+H05261)
Correct for Electrical Dark: No (USB2+H05261)
Strobe/Lamp Enabled: No (USB2+H05261)
Correct for Detector Non-linearity: No (USB2+H05261)
Correct for Stray Light: No (USB2+H05261)
Number of Pixels in Processed Spectrum: 2048
>>>>>Begin Processed Spectral Data<<<<<
365.73	77.24
365.92	77.24
366.12	77.24
366.32	0.00
366.52	0.00
366.72	0.00
366.91	0.00
367.11	0.00
367.31	0.00
367.51	0.00
367.70	0.00
367.90	2.34
368.10	0.00
368.30	0.00
368.49	0.00
368.69	0.00
368.89	0.00
369.09	0.00
369.28	0.00
369.48	0.00
369.68	0.00
369.87	0.00
370.07	0.00
370.27	63.19
370.47	133.41
370.66	423.64
370.86	500.87
371.06	575.77
371.25	650.67
371.45	479.81
371.65	550.03
371.84	381.51
372.04	498.53
372.24	561.73
372.44	573.43
372.63	477.47
372.83	578.11
373.03	500.87
373.22	447.04
373.42	472.79
373.62	543.00
373.81	592.16
374.01	543.00
374.21	479.81
374.40	507.90
374.60	559.39
374.79	657.69
374.99	608.54
375.19	699.82
375.38	657.69
375.58	648.33
375.78	662.37
375.97	748.97
376.17	706.84
376.37	636.63
376.56	653.01
376.76	713.86
376.95	730.25
377.15	772.38
377.35	833.23
377.54	866.00
377.74	945.58
377.93	905.79
378.13	863.66
378.33	844.93
378.52	809.83
378.72	802.80
378.91	741.95
379.11	723.23
379.31	688.12
379.50	695.14
379.70	875.36
379.89	814.51
380.09	877.70
380.28	809.83
380.48	840.25
380.68	833.23
380.87	805.14
381.07	713.86
381.26	704.50
381.46	634.29
381.65	585.13
381.85	620.24
382.04	634.29
382.24	596.84
382.43	603.86
382.63	517.26
382.83	526.62
383.02	629.60
383.22	631.94
383.41	550.03
383.61	606.20
383.80	692.80
384.00	751.31
384.19	798.12
384.39	851.96
384.58	847.27
384.78	819.19
384.97	905.79
385.17	741.95
385.36	683.44
385.56	748.97
385.75	767.70
385.95	800.46
386.14	858.98
386.34	814.51
386.53	781.74
386.72	709.18
386.92	807.48
387.11	774.72
387.31	877.70
387.50	828.55
387.70	837.91
387.89	828.55
388.09	889.40
388.28	821.53
388.48	795.78
388.67	938.55
388.86	873.02
389.06	990.05
389.25	1050.90
389.45	1015.79
389.64	1060.26
389.84	1025.15
390.03	997.07
390.22	1032.18
390.42	1139.84
390.61	1142.18
390.81	1170.27
391.00	1191.33
391.19	1177.29
391.39	1039.20
391.58	1041.54
391.78	1064.94
391.97	1086.01
392.16	912.81
392.36	938.55
392.55	795.78
392.75	524.28
392.94	533.64
393.13	507.90
393.33	657.69
393.52	784.08
393.71	877.70
393.91	901.11
394.10	915.15
394.29	1029.84
394.49	1069.62
394.68	1210.06
394.88	1221.76
395.07	1289.64
395.26	1245.16
395.46	1301.34
395.65	1116.44
395.84	1104.73
396.04	929.19
396.23	856.64
396.42	606.20
396.62	730.25
396.81	812.17
397.00	887.06
397.19	1090.69
397.39	1177.29
397.58	1394.96
397.77	1465.18
397.97	1451.13
398.16	1549.43
398.35	1519.01
398.55	1596.25
398.74	1596.25
398.93	1760.08
399.12	1701.57
399.32	1678.16
399.51	1565.82
399.70	1790.51
399.90	1724.97
400.09	1771.79
400.28	1732.00
400.47	1603.27
400.67	1724.97
400.86	1813.92
401.05	1820.94
401.24	1867.75
401.44	1827.96
401.63	1959.03
401.82	1867.75
402.01	1795.19
402.21	1802.21
402.40	1963.71
402.59	1884.13
402.78	1837.32
402.97	1837.32
403.17	1795.19
403.36	2001.16
403.55	1973.07
403.74	1919.24
403.93	1930.94
404.13	2083.08
404.32	2026.90
404.51	2090.10
404.70	1998.82
404.89	1902.86
405.09	1949.67
405.28	1792.85
405.47	1811.57
405.66	1858.39
405.85	1757.74
406.05	1703.91
406.24	1795.19
406.43	1898.17
406.62	1921.58
406.81	1966.05
407.00	1877.11
407.20	1753.06
407.39	1776.47
407.58	1879.45
407.77	1975.41
407.96	2076.06
408.15	2059.67
408.34	2127.55
408.54	2078.40
408.73	2057.33
408.92	2132.23
409.11	2083.08
409.30	1970.73
409.49	1799.87
409.68	1722.63
409.87	1753.06
410.07	1935.62
410.26	1949.67
410.45	1907.54
410.64	2015.20
410.83	2251.60
411.02	2209.47
411.21	2314.79
411.40	2176.70
411.59	2242.23
411.78	2242.23
411.98	2179.04
412.17	2237.55
412.36	2256.28
412.55	2258.62
412.74	2167.34
412.93	2108.82
413.12	2188.40
413.31	2361.60
413.50	2267.98
413.69	2331.17
413.88	2251.60
414.07	2319.47
414.26	2211.81
414.45	2209.47
414.64	2275.00
414.83	2392.03
415.02	2251.60
415.22	2420.11
415.41	2492.67
415.60	2450.54
415.79	2457.56
415.98	2626.08
416.17	2686.94
416.36	2485.65
416.55	2502.03
416.74	2328.83
416.93	2338.20
417.12	2289.04
417.31	2279.68
417.50	2354.58
417.69	2464.58
417.88	2480.97
418.07	2459.90
418.26	2340.54
418.45	2354.58
418.64	2576.93
418.83	2597.99
419.02	2476.29
419.21	2483.31
419.39	2415.43
419.58	2300.75
419.77	2363.94
419.96	2377.98
420.15	2567.57
420.34	2537.14
420.53	2640.12
420.72	2738.43
420.91	2698.64
421.10	2679.91
421.29	2628.42
421.48	2595.65
421.67	2691.62
421.86	2553.52
422.05	2471.61
422.24	2223.51
422.43	2214.15
422.61	2324.15
422.80	2562.89
422.99	2445.86
423.18	2516.08
423.37	2429.48
423.56	2499.69
423.75	2476.29
423.94	2478.63
424.13	2471.61
424.32	2504.37
424.50	2445.86
424.69	2408.41
424.88	2396.71
425.07	2317.13
425.26	2387.35
425.45	2401.39
425.64	2303.09
425.83	2338.20
426.01	2523.10
426.20	2441.18
426.39	2427.14
426.58	2382.67
426.77	2223.51
426.96	2216.49
427.15	2263.30
427.33	2448.20
427.52	2445.86
427.71	2478.63
427.90	2420.11
428.09	2443.52
428.28	2373.30
428.46	2317.13
428.65	2237.55
428.84	2363.94
429.03	2279.68
429.22	2305.43
429.40	2080.74
429.59	1891.15
429.78	1760.08
429.97	1778.81
430.16	1762.42
430.34	1795.19
430.53	1713.27
430.72	1891.15
430.91	1991.80
431.10	2136.91
431.28	2565.23
431.47	2691.62
431.66	2757.15
431.85	2593.31
432.03	2359.26
432.22	2511.39
432.41	2406.07
432.60	2743.11
432.79	2801.62
432.97	2712.68
433.16	2703.32
433.35	2506.71
433.54	2331.17
433.72	2279.68
433.91	2235.21
434.10	2368.62
434.28	2572.25
434.47	2679.91
434.66	2759.49
434.85	2778.22
435.03	2780.56
435.22	3276.75
435.41	3887.63
435.59	4042.11
435.78	3868.91
435.97	3300.16
436.16	3176.11
436.34	2911.63
436.53	3049.72
436.72	2839.07
436.90	2684.59
437.09	2864.82
437.28	2733.75
437.46	2745.45
437.65	2752.47
437.84	2647.15
438.02	2539.48
438.21	2506.71
438.40	2525.44
438.58	2705.66
438.77	2918.65
438.96	2792.26
439.14	2834.39
439.33	2965.46
439.52	2993.55
439.70	2956.10
439.89	2888.22
440.08	2754.81
440.26	2813.32
440.45	2888.22
440.63	3061.42
440.82	3061.42
441.01	3204.19
441.19	3215.90
441.38	3349.31
441.57	3356.33
441.75	3309.52
441.94	3297.81
442.12	3148.02
442.31	3262.71
442.50	3262.71
442.68	3243.98
442.87	3251.00
443.05	3173.77
443.24	3192.49
443.43	3433.57
443.61	3353.99
443.80	3456.97
443.98	3351.65
444.17	3361.01
444.35	3363.35
444.54	3543.57
444.73	3379.73
444.91	3358.67
445.10	3267.39
445.28	3014.61
445.47	2991.20
445.65	3145.68
445.84	3180.79
446.02	3117.59
446.21	3255.69
446.39	3194.83
446.58	3262.71
446.77	3290.79
446.95	3400.80
447.14	3494.42
447.32	3639.53
447.51	3548.25
447.69	3309.52
447.88	3384.41
448.06	3342.28
448.25	3365.69
448.43	3473.36
448.62	3384.41
448.80	3428.88
448.99	3433.57
449.17	3475.70
449.36	3358.67
449.54	3562.30
449.73	3487.40
449.91	3653.58
450.10	3693.37
450.28	3812.73
450.46	3817.41
450.65	3723.79
450.83	3784.65
451.02	3592.72
451.20	3602.08
451.39	3566.98
451.57	3618.47
451.76	3639.53
451.94	3433.57
452.13	3506.12
452.31	3454.63
452.49	3344.63
452.68	3241.64
452.86	3220.58
453.05	3330.58
453.23	3466.33
453.42	3456.97
453.60	3485.06
453.78	3501.44
453.97	3552.93
454.15	3538.89
454.34	3487.40
454.52	3475.70
454.70	3506.12
454.89	3562.30
455.07	3499.10
455.26	3548.25
455.44	3590.38
455.62	3574.00
455.81	3758.90
455.99	3705.07
456.17	3765.92
456.36	3667.62
456.54	3758.90
456.73	3782.31
456.91	3838.48
457.09	3784.65
457.28	3836.14
457.46	3613.79
457.64	3791.67
457.83	3538.89
458.01	3517.83
458.19	3676.98
458.38	3616.13
458.56	3691.02
458.74	3693.37
458.93	3702.73
459.11	3499.10
459.29	3585.70
459.48	3655.92
459.66	3644.21
459.84	3669.96
460.03	3740.18
460.21	3709.75
460.39	3836.14
460.57	3896.99
460.76	3803.37
460.94	3747.20
461.12	3794.01
461.31	3801.03
461.49	3812.73
461.67	3829.12
461.85	3941.46
462.04	3831.46
462.22	4285.52
462.40	3833.80
462.59	3786.99
462.77	3992.95
462.95	3838.48
463.13	3735.50
463.32	3756.56
463.50	3791.67
463.68	3880.61
463.86	3747.20
464.05	3660.60
464.23	3747.20
464.41	3740.18
464.59	3653.58
464.78	3733.15
464.96	3676.98
465.14	3606.77
465.32	3896.99
465.50	3861.88
465.69	3882.95
465.87	3751.88
466.05	3784.65
466.23	3714.43
466.41	3602.08
466.60	3536.55
466.78	3538.89
466.96	3669.96
467.14	3515.48
467.32	3796.35
467.51	3779.97
467.69	3623.15
467.87	3871.25
468.05	3794.01
468.23	3712.09
468.41	3768.26
468.60	3871.25
468.78	3723.79
468.96	3789.33
469.14	3873.59
469.32	3918.06
469.50	3763.58
469.69	3672.30
469.87	3616.13
470.05	3641.87
470.23	3644.21
470.41	3590.38
470.59	3630.17
470.77	3723.79
470.95	3866.56
471.14	3840.82
471.32	3782.31
471.50	4009.34
471.68	4121.68
471.86	4079.55
472.04	4018.70
472.22	4098.28
472.40	3850.18
472.58	3899.33
472.77	3758.90
472.95	3772.94
473.13	3992.95
473.31	3941.46
473.49	3906.35
473.67	3915.72
473.85	4042.11
474.03	4042.11
474.21	4140.41
474.39	4074.87
474.57	4325.31
474.75	4250.41
474.93	4187.22
475.12	3981.25
475.30	3943.80
475.48	4021.04
475.66	4145.09
475.84	4042.11
476.02	4060.83
476.20	4018.70
476.38	4070.19
476.56	4166.15
476.74	4152.11
476.92	4297.22
477.10	4222.33
477.28	4346.37
477.46	4313.61
477.64	4355.74
477.82	4514.89
478.00	4507.87
478.18	4444.68
478.36	4421.27
478.54	4299.56
478.72	4458.72
478.90	4463.40
479.08	4655.33
479.26	4835.55
479.44	4760.65
479.62	4622.56
479.80	4760.65
479.98	4601.49
480.16	4711.50
480.34	4695.11
480.52	4777.03
480.70	4873.00
480.88	4753.63
481.06	4863.63
481.24	4802.78
481.41	5081.30
481.59	5048.54
481.77	5165.56
481.95	4950.23
482.13	4917.47
482.31	5107.05
482.49	5109.39
482.67	5050.88
482.85	5226.42
483.03	5069.60
483.21	5263.86
483.39	5273.23
483.57	5188.97
483.74	5235.78
483.92	5142.16
484.10	5160.88
484.28	5348.12
484.46	5413.66
484.64	5516.64
484.82	5121.09
485.00	5275.57
485.18	5055.56
485.35	5217.05
485.53	4681.07
485.71	4386.16
485.89	4308.93
486.07	4550.00
486.25	4734.90
486.43	5046.20
486.61	5177.26
486.78	4994.70
486.96	5146.84
487.14	5411.32
487.32	5500.26
487.50	5488.56
487.68	5792.83
487.85	5785.80
488.03	5893.47
488.21	5977.73
488.39	5626.65
488.57	5598.56
488.75	5640.69
488.92	5933.26
489.10	6022.20
489.28	6108.80
489.46	6179.01
489.64	6256.25
489.81	6321.79
489.99	6317.11
490.17	6441.15
490.35	6382.64
490.53	6319.45
490.70	6258.59
490.88	6317.11
491.06	6345.19
491.24	6366.26
491.41	6146.25
491.59	5867.72
491.77	5877.09
491.95	5809.21
492.13	5975.39
492.30	6246.89
492.48	6492.65
492.66	6754.79
492.84	6661.16
493.01	6766.49
493.19	6415.41
493.37	6413.07
493.54	6347.53
493.72	6399.02
493.90	6696.27
494.08	6654.14
494.25	7026.29
494.43	6967.77
494.61	7070.76
494.79	6974.80
494.96	6993.52
495.14	6925.65
495.32	6799.26
495.49	6473.92
495.67	6532.44
495.85	6951.39
496.02	6911.60
496.20	7215.87
496.38	6988.84
496.55	6984.16
496.73	7098.84
496.91	7213.53
497.09	7300.13
497.26	7283.75
497.44	7307.15
497.62	7042.67
497.79	6792.23
497.97	6579.25
498.14	6590.95
498.32	6993.52
498.50	7112.89
498.67	7339.92
498.85	7155.02
499.03	7295.45
499.20	7279.07
499.38	7337.58
499.56	7255.66
499.73	7208.85
499.91	7087.14
500.08	6904.58
500.26	6780.53
500.44	6888.20
500.61	6906.92
500.79	7059.06
500.97	6937.35
501.14	6761.81
501.32	6677.55
501.49	6630.74
501.67	6775.85
501.84	6806.28
502.02	6949.05
502.20	7136.29
502.37	7063.74
502.55	6984.16
502.72	7087.14
502.90	7140.97
503.07	7070.76
503.25	6965.43
503.43	6717.34
503.60	6623.72
503.78	6506.69
503.95	6509.03
504.13	6925.65
504.30	6967.77
504.48	7152.68
504.65	7297.79
504.83	7124.59
505.01	7304.81
505.18	7258.00
505.36	7435.88
505.53	7412.48
505.71	7480.35
505.88	7595.04
506.06	7424.18
506.23	7424.18
506.41	7316.51
506.58	7424.18
506.76	7201.83
506.93	7171.40
507.11	7225.23
507.28	7290.77
507.46	7286.09
507.63	7070.76
507.81	6904.58
507.98	6979.48
508.16	7206.51
508.33	7356.30
508.50	7274.38
508.68	7679.30
508.85	7751.85
509.03	7737.81
509.20	7721.43
509.38	7442.90
509.55	7379.71
509.73	7126.93
509.90	7384.39
510.08	7428.86
510.25	7557.59
510.42	7541.21
510.60	7307.15
510.77	7564.61
510.95	7737.81
511.12	7801.01
511.30	7805.69
511.47	8116.98
511.64	8131.02
511.82	7882.92
511.99	7393.75
512.17	7276.73
512.34	7377.37
512.51	7566.95
512.69	7435.88
512.86	7454.61
513.04	7754.19
513.21	7559.93
513.38	7445.24
513.56	7403.11
513.73	7171.40
513.90	7208.85
514.08	7316.51
514.25	7321.20
514.43	7463.97
514.60	7616.10
514.77	7414.82
514.95	7543.55
515.12	7384.39
515.29	7412.48
515.47	7782.28
515.64	7955.48
515.81	7597.38
515.99	7482.69
516.16	7316.51
516.33	6832.02
516.51	6239.87
516.68	6141.57
516.85	6026.88
517.03	6146.25
517.20	6693.93
517.37	7169.06
517.54	7452.27
517.72	7375.03
517.89	6932.67
518.06	6520.73
518.24	6422.43
518.41	6808.62
518.58	7246.30
518.75	7323.54
518.93	7260.34
519.10	7288.43
519.27	7360.98
519.45	7370.35
519.62	7527.16
519.79	7688.66
519.96	7602.06
520.14	7716.75
520.31	7307.15
520.48	7267.36
520.65	7447.58
520.83	7751.85
521.00	7714.41
521.17	7627.81
521.34	7531.84
521.52	7557.59
521.69	7857.18
521.86	7880.58
522.03	7789.30
522.20	7543.55
522.38	7325.88
522.55	7222.89
522.72	7414.82
522.89	7538.87
523.07	7449.93
523.24	7506.10
523.41	7714.41
523.58	7742.49
523.75	7995.27
523.92	7948.46
524.10	7925.05
524.27	8051.44
524.44	8067.83
524.61	7960.16
524.78	7953.14
524.96	7768.24
525.13	7719.09
525.30	7831.43
525.47	8149.75
525.64	8046.76
525.81	7819.73
525.98	7435.88
526.16	6995.86
526.33	6876.49
526.50	6670.53
526.67	6410.73
526.84	6782.87
527.01	6979.48
527.18	7283.75
527.36	7335.24
527.53	7595.04
527.70	7613.76
527.87	7712.07
528.04	7726.11
528.21	7592.70
528.38	7873.56
528.55	7934.42
528.72	8152.09
528.89	8100.59
529.07	7889.95
529.24	7822.07
529.41	7817.39
529.58	7555.25
529.75	7616.10
529.92	7639.51
530.09	7932.08
530.26	7810.37
530.43	8056.12
530.60	7882.92
530.77	7976.55
530.94	8182.51
531.11	8023.36
531.28	7934.42
531.46	7817.39
531.63	7779.94
531.80	7723.77
531.97	7674.62
532.14	7386.73
532.31	7129.27
532.48	7213.53
532.65	7185.44
532.82	7243.96
532.99	7456.95
533.16	7857.18
533.33	7981.23
533.50	7899.31
533.67	7861.86
533.84	7632.49
534.01	7581.00
534.18	7779.94
534.35	7777.60
534.52	7793.98
534.69	7744.83
534.86	7915.69
535.03	7824.41
535.20	8074.85
535.37	8006.97
535.54	8013.99
535.71	8079.53
535.88	8009.31
536.05	7946.12
536.22	7758.88
536.38	7665.25
536.55	7543.55
536.72	7475.67
536.89	7459.29
537.06	7618.44
537.23	7742.49
537.40	7936.76
537.57	7925.05
537.74	7960.16
537.91	7896.97
538.08	7826.75
538.25	7932.08
538.42	7908.67
538.59	8175.49
538.75	7875.90
538.92	7864.20
539.09	7756.54
539.26	7503.76
539.43	7695.68
539.60	7665.25
539.77	7571.63
539.94	7744.83
540.11	7672.28
540.28	7419.50
540.44	7473.33
540.61	7674.62
540.78	7740.15
540.95	7927.39
541.12	8276.13
541.29	8432.95
541.46	8603.81
541.62	8503.17
541.79	8615.51
541.96	8184.85
542.13	8292.52
542.30	8437.63
542.47	8299.54
542.63	7908.67
542.80	8107.62
542.97	8084.21
543.14	7878.24
543.31	7985.91
543.48	8255.07
543.64	8500.83
543.81	8718.50
543.98	8538.27
544.15	8442.31
544.32	8100.59
544.48	8234.00
544.65	8145.06
544.82	8292.52
544.99	8259.75
545.16	8065.49
545.32	8028.04
545.49	8812.12
545.66	10132.18
545.83	10415.38
546.00	9961.32
546.16	8985.32
546.33	8585.08
546.50	8318.26
546.67	8189.53
546.83	8194.22
547.00	8070.17
547.17	7943.78
547.34	7782.28
547.50	7616.10
547.67	7843.14
547.84	7751.85
548.00	7854.84
548.17	7854.84
548.34	7871.22
548.51	8184.85
548.67	7871.22
548.84	7929.74
549.01	7915.69
549.18	7911.01
549.34	7716.75
549.51	7655.89
549.68	7728.45
549.84	7829.09
550.01	7634.83
550.18	7779.94
550.34	7726.11
550.51	7550.57
550.68	7527.16
550.84	7468.65
551.01	7503.76
551.18	7602.06
551.34	7705.04
551.51	7812.71
551.68	7669.94
551.84	7705.04
552.01	7646.53
552.18	7489.71
552.34	7440.56
552.51	7232.26
552.68	7037.99
552.84	7515.46
553.01	7410.14
553.18	7272.04
553.34	7382.05
553.51	7545.89
553.67	7639.51
553.84	7620.78
554.01	7424.18
554.17	7459.29
554.34	7164.38
554.51	7403.11
554.67	7412.48
554.84	7414.82
555.00	7524.82
555.17	7307.15
555.33	7400.77
555.50	7199.49
555.67	7265.02
555.83	7112.89
556.00	7234.60
556.16	7169.06
556.33	7000.54
556.50	7096.50
556.66	7075.44
556.83	6967.77
556.99	7082.46
557.16	7059.06
557.32	7096.50
557.49	7098.84
557.65	7150.34
557.82	7117.57
557.98	7082.46
558.15	7105.87
558.32	6864.79
558.48	6717.34
558.65	6722.02
558.81	6817.98
558.98	6675.21
559.14	6771.17
559.31	6932.67
559.47	6963.09
559.64	6834.36
559.80	6764.15
559.97	6761.81
560.13	6925.65
560.30	6956.07
560.46	7215.87
560.63	7286.09
560.79	7272.04
560.96	7091.82
561.12	6843.73
561.29	6782.87
561.45	6993.52
561.61	6909.26
561.78	7077.78
561.94	6827.34
562.11	6850.75
562.27	6724.36
562.44	6988.84
562.60	6846.07
562.77	6803.94
562.93	7101.19
563.10	6822.66
563.26	6740.74
563.42	6827.34
563.59	6642.44
563.75	6775.85
563.92	6925.65
564.08	6698.61
564.24	6813.30
564.41	6967.77
564.57	6820.32
564.74	6825.00
564.90	6942.03
565.07	6869.47
565.23	6803.94
565.39	6600.31
565.56	6406.05
565.72	6424.77
565.88	6401.37
566.05	6450.52
566.21	6539.46
566.38	6614.35
566.54	6499.67
566.70	6661.16
566.87	6820.32
567.03	6752.45
567.19	6740.74
567.36	6712.66
567.52	6839.05
567.68	6759.47
567.85	6413.07
568.01	6368.60
568.17	6146.25
568.34	6204.76
568.50	6157.95
568.66	6118.16
568.83	6157.95
568.99	6375.62
569.15	6366.26
569.32	6296.04
569.48	6118.16
569.64	6122.84
569.81	6237.53
569.97	6232.85
570.13	6312.42
570.30	6368.60
570.46	6073.69
570.62	6031.56
570.78	5884.11
570.95	6047.94
571.11	6169.65
571.27	6181.35
571.43	6015.18
571.60	6239.87
571.76	6181.35
571.92	6169.65
572.09	6286.68
572.25	6497.33
572.41	6326.47
572.57	6118.16
572.74	6307.74
572.90	6267.95
573.06	6183.70
573.22	6312.42
573.38	6333.49
573.55	6207.10
573.71	6246.89
573.87	6164.97
574.03	5942.62
574.20	5998.79
574.36	5996.45
574.52	6054.97
574.68	6022.20
574.84	5982.41
575.01	6008.16
575.17	5933.26
575.33	6033.90
575.49	6043.26
575.65	5982.41
575.82	5891.13
575.98	6113.48
576.14	5975.39
576.30	6019.86
576.46	6179.01
576.62	6370.94
576.79	6541.80
576.95	6448.18
577.11	6174.33
577.27	6155.61
577.43	6050.28
577.59	5856.02
577.75	5813.89
577.92	5795.17
578.08	5816.23
578.24	5856.02
578.40	6003.47
578.56	6094.76
578.72	6459.88
578.88	6459.88
579.04	6223.48
579.21	6282.00
579.37	6083.05
579.53	6324.13
579.69	6092.41
579.85	6207.10
580.01	6228.17
580.17	6033.90
580.33	6033.90
580.49	6143.91
580.65	6043.26
580.82	6179.01
580.98	6293.70
581.14	6113.48
581.30	6179.01
581.46	6059.65
581.62	6169.65
581.78	6274.98
581.94	6403.71
582.10	6207.10
582.26	6478.60
582.42	6256.25
582.58	6370.94
582.74	6375.62
582.90	6384.98
583.06	6366.26
583.22	6171.99
583.38	6223.48
583.54	6195.40
583.70	6429.45
583.86	6160.29
584.02	6237.53
584.18	6066.67
584.34	6230.51
584.50	6202.42
584.66	6073.69
584.82	6038.58
584.98	6176.67
585.14	6087.73
585.30	5888.79
585.46	5748.36
585.62	5762.40
585.78	5788.14
585.94	5921.56
586.10	5792.83
586.26	5907.51
586.42	5991.77
586.58	5996.45
586.74	5888.79
586.90	6218.80
587.06	6047.94
587.22	6127.52
587.38	5778.78
587.54	5743.67
587.70	5504.94
587.86	5376.21
588.02	5186.63
588.18	5060.24
588.34	4807.46
588.49	4578.09
588.65	4400.21
588.81	4294.88
588.97	4297.22
589.13	4238.71
589.29	4107.64
589.45	4145.09
589.61	4374.46
589.77	4411.91
589.93	4557.02
590.08	4936.19
590.24	5055.56
590.40	4971.30
590.56	4882.36
590.72	4826.18
590.88	4842.57
591.04	4830.87
591.20	4800.44
591.35	4849.59
591.51	4842.57
591.67	4648.30
591.83	4814.48
591.99	4685.75
592.15	4826.18
592.31	5025.13
592.46	5130.45
592.62	5111.73
592.78	5336.42
592.94	5116.41
593.10	5233.44
593.26	5193.65
593.41	5277.91
593.57	5277.91
593.73	4929.17
593.89	4877.68
594.05	4634.26
594.20	4688.09
594.36	4510.21
594.52	4395.53
594.68	4545.32
594.84	4652.98
594.99	4868.31
595.15	4887.04
595.31	4910.44
595.47	4770.01
595.62	4844.91
595.78	5046.20
595.94	5109.39
596.10	5280.25
596.25	5022.79
596.41	5188.97
596.57	4954.91
596.73	4950.23
596.88	4973.64
597.04	5046.20
597.20	4880.02
597.36	5095.35
597.51	4947.89
597.67	5085.98
597.83	5008.75
597.99	5053.22
598.14	5032.15
598.30	5259.18
598.46	5041.51
598.61	5149.18
598.77	5245.14
598.93	5214.71
599.09	5048.54
599.24	5408.98
599.40	5334.08
599.56	5219.39
599.71	5093.01
599.87	5224.08
600.03	5172.58
600.18	5104.71
600.34	5144.50
600.50	5144.50
600.65	5231.10
600.81	5167.90
600.97	5200.67
601.12	5256.84
601.28	5231.10
601.44	5266.21
601.59	5100.03
601.75	4950.23
601.91	5107.05
602.06	5034.49
602.22	5301.31
602.37	5207.69
602.53	5100.03
602.69	5125.77
602.84	5193.65
603.00	5156.20
603.16	5242.80
603.31	5359.83
603.47	5444.09
603.62	5188.97
603.78	5228.76
603.94	5158.54
604.09	5277.91
604.25	5191.31
604.40	4985.34
604.56	5355.15
604.71	5284.93
604.87	5252.16
605.03	5191.31
605.18	5219.39
605.34	5284.93
605.49	5041.51
605.65	5233.44
605.80	5228.76
605.96	5085.98
606.12	5165.56
606.27	5308.34
606.43	5174.92
606.58	5060.24
606.74	5245.14
606.89	5212.37
607.05	5165.56
607.20	5259.18
607.36	5114.07
607.51	5142.16
607.67	5128.11
607.82	5219.39
607.98	5195.99
608.13	5125.77
608.29	5128.11
608.44	5142.16
608.60	5090.67
608.75	5191.31
608.91	5359.83
609.06	5320.04
609.22	5277.91
609.37	5203.01
609.53	5411.32
609.68	5416.00
609.84	5322.38
609.99	5359.83
610.15	5472.17
610.30	5563.45
610.46	6214.12
610.61	6452.86
610.76	6787.55
610.92	7339.92
611.07	7520.14
611.23	7665.25
611.38	7499.08
611.54	7124.59
611.69	6651.80
611.84	6319.45
612.00	5912.19
612.15	5893.47
612.31	5621.97
612.46	5607.92
612.62	5727.29
612.77	5430.04
612.92	5617.29
613.08	5392.59
613.23	5338.76
613.39	5137.48
613.54	5083.64
613.69	5200.67
613.85	5123.43
614.00	5315.36
614.15	5310.68
614.31	5226.42
614.46	5249.82
614.62	5170.24
614.77	5170.24
614.92	5231.10
615.08	5062.58
615.23	4959.60
615.38	4954.91
615.54	4863.63
615.69	4844.91
615.84	4723.20
616.00	4671.71
616.15	4449.36
616.30	4669.37
616.46	4575.75
616.61	4629.58
616.76	4528.94
616.92	4760.65
617.07	4498.51
617.22	4507.87
617.37	4564.04
617.53	4678.73
617.68	4578.09
617.83	4645.96
617.99	4770.01
618.14	4903.42
618.29	4638.94
618.45	4652.98
618.60	4578.09
618.75	4458.72
618.90	4484.47
619.06	4575.75
619.21	4545.32
619.36	4587.45
619.51	4465.74
619.67	4297.22
619.82	4367.44
619.97	4601.49
620.12	4500.85
620.28	4475.10
620.43	4477.44
620.58	4697.46
620.73	4564.04
620.89	4571.07
621.04	4622.56
621.19	4627.24
621.34	4449.36
621.49	4351.06
621.65	4388.50
621.80	4393.19
621.95	4545.32
622.10	4390.84
622.25	4498.51
622.41	4437.66
622.56	4498.51
622.71	4229.35
622.86	4341.69
623.01	4362.76
623.16	4365.10
623.32	4339.35
623.47	4348.72
623.62	4390.84
623.77	4297.22
623.92	4257.43
624.07	4386.16
624.23	4145.09
624.38	4208.28
624.53	4203.60
624.68	4156.79
624.83	4306.59
624.98	4098.28
625.13	3915.72
625.29	4173.18
625.44	4023.38
625.59	3904.01
625.74	4196.58
625.89	4030.40
626.04	4114.66
626.19	4166.15
626.34	4205.94
626.49	4091.26
626.65	4051.47
626.80	4163.81
626.95	4175.52
627.10	4074.87
627.25	3913.38
627.40	3716.77
627.55	3705.07
627.70	3676.98
627.85	3634.85
628.00	3693.37
628.15	3716.77
628.30	3864.22
628.45	3854.86
628.60	3796.35
628.76	3894.65
628.91	3967.21
629.06	3798.69
629.21	3840.82
629.36	3763.58
629.51	3754.22
629.66	3878.27
629.81	3777.62
629.96	3817.41
630.11	3815.07
630.26	3981.25
630.41	3946.14
630.56	3948.48
630.71	3995.29
630.86	4058.49
631.01	4021.04
631.16	3854.86
631.31	3934.44
631.46	3686.34
631.61	3735.50
631.76	3623.15
631.91	3660.60
632.06	3740.18
632.21	3581.02
632.36	3644.21
632.51	3695.71
632.66	3672.30
632.81	3714.43
632.96	3758.90
633.10	3751.88
633.25	3906.35
633.40	3700.39
633.55	3672.30
633.70	3709.75
633.85	3714.43
634.00	3508.46
634.15	3566.98
634.30	3686.34
634.45	3679.32
634.60	3658.26
634.75	3588.04
634.90	3637.19
635.05	3576.34
635.19	3740.18
635.34	3676.98
635.49	3639.53
635.64	3747.20
635.79	3618.47
635.94	3545.91
636.09	3478.04
636.24	3581.02
636.39	3609.11
636.53	3599.74
636.68	3618.47
636.83	3686.34
636.98	3782.31
637.13	3632.51
637.28	3669.96
637.43	3667.62
637.57	3712.09
637.72	3658.26
637.87	3508.46
638.02	3588.04
638.17	3599.74
638.32	3555.27
638.46	3660.60
638.61	3667.62
638.76	3447.61
638.91	3604.42
639.06	3414.84
639.20	3499.10
639.35	3566.98
639.50	3508.46
639.65	3452.29
639.80	3466.33
639.94	3447.61
640.09	3391.44
640.24	3452.29
640.39	3384.41
640.54	3412.50
640.68	3515.48
640.83	3414.84
640.98	3400.80
641.13	3524.85
641.27	3471.01
641.42	3325.90
641.57	3456.97
641.72	3405.48
641.86	3461.65
642.01	3466.33
642.16	3487.40
642.31	3485.06
642.45	3480.38
642.60	3478.04
642.75	3492.08
642.90	3384.41
643.04	3314.20
643.19	3400.80
643.34	3318.88
643.48	3454.63
643.63	3398.46
643.78	3405.48
643.93	3346.97
644.07	3489.74
644.22	3412.50
644.37	3269.73
644.51	3321.22
644.66	3410.16
644.81	3213.56
644.95	3311.86
645.10	3234.62
645.25	3169.09
645.39	3272.07
645.54	3253.34
645.69	3243.98
645.83	3021.63
645.98	3073.12
646.13	3159.72
646.27	3056.74
646.42	2935.03
646.57	3045.04
646.71	2953.76
646.86	2815.66
647.00	2864.82
647.15	2836.73
647.30	2642.46
647.44	2731.41
647.59	2593.31
647.74	2623.74
647.88	2818.00
648.03	2909.29
648.17	2607.36
648.32	2766.51
648.47	2820.35
648.61	2848.43
648.76	2719.70
648.90	2801.62
649.05	2808.64
649.20	2623.74
649.34	2661.19
649.49	2642.46
649.63	2827.37
649.78	2857.79
649.92	2949.08
650.07	3063.76
650.21	3138.66
650.36	3145.68
650.51	3162.06
650.65	3227.60
650.80	3061.42
650.94	3033.33
651.09	2991.20
651.23	2724.38
651.38	2661.19
651.52	2607.36
651.67	2612.04
651.81	2597.99
651.96	2803.96
652.10	2773.53
652.25	2888.22
652.39	2951.42
652.54	2895.24
652.68	2988.86
652.83	2984.18
652.97	2953.76
653.12	2991.20
653.26	2937.37
653.41	2995.89
653.55	2963.12
653.70	2988.86
653.84	2869.50
653.99	2785.24
654.13	2750.13
654.27	2782.90
654.42	2677.57
654.56	2689.28
654.71	2745.45
654.85	2712.68
655.00	2710.34
655.14	2712.68
655.29	2644.81
655.43	2595.65
655.57	2658.85
655.72	2385.01
655.86	2225.85
656.01	2155.63
656.15	2024.56
656.30	2118.18
656.44	2319.47
656.58	2431.82
656.73	2513.74
656.87	2555.86
657.01	2642.46
657.16	2740.77
657.30	2736.09
657.45	2834.39
657.59	2846.09
657.73	2829.71
657.88	2775.88
658.02	2843.75
658.16	2810.98
658.31	2796.94
658.45	2759.49
658.60	2698.64
658.74	2729.06
658.88	2668.21
659.03	2829.71
659.17	2719.70
659.31	2710.34
659.46	2682.25
659.60	2846.09
659.74	2717.36
659.89	2782.90
660.03	2752.47
660.17	2820.35
660.32	2719.70
660.46	2822.69
660.60	2738.43
660.74	2649.49
660.89	2773.53
661.03	2684.59
661.17	2794.60
661.32	2911.63
661.46	2885.88
661.60	2869.50
661.74	2965.46
661.89	2972.48
662.03	2850.77
662.17	2820.35
662.31	2712.68
662.46	2794.60
662.60	2780.56
662.74	2689.28
662.88	2750.13
663.03	2750.13
663.17	2768.85
663.31	2747.79
663.45	2719.70
663.60	2850.77
663.74	2768.85
663.88	2810.98
664.02	2640.12
664.17	2696.30
664.31	2637.78
664.45	2642.46
664.59	2670.55
664.73	2736.09
664.88	2609.70
665.02	2626.08
665.16	2607.36
665.30	2768.85
665.44	2689.28
665.59	2733.75
665.73	2614.38
665.87	2593.31
666.01	2590.97
666.15	2581.61
666.29	2612.04
666.44	2794.60
666.58	2640.12
666.72	2527.78
666.86	2567.57
667.00	2607.36
667.14	2555.86
667.28	2609.70
667.43	2518.42
667.57	2513.74
667.71	2649.49
667.85	2565.23
667.99	2616.72
668.13	2600.34
668.27	2684.59
668.41	2672.89
668.56	2520.76
668.70	2590.97
668.84	2516.08
668.98	2640.12
669.12	2537.14
669.26	2495.01
669.40	2546.50
669.54	2616.72
669.68	2609.70
669.82	2431.82
669.96	2527.78
670.10	2513.74
670.25	2579.27
670.39	2562.89
670.53	2385.01
670.67	2523.10
670.81	2476.29
670.95	2520.76
671.09	2466.92
671.23	2399.05
671.37	2422.45
671.51	2401.39
671.65	2307.77
671.79	2424.80
671.93	2394.37
672.07	2469.27
672.21	2361.60
672.35	2431.82
672.49	2410.75
672.63	2408.41
672.77	2354.58
672.91	2265.64
673.05	2328.83
673.19	2349.90
673.33	2445.86
673.47	2438.84
673.61	2375.64
673.75	2321.81
673.89	2251.60
674.03	2434.16
674.17	2392.03
674.31	2396.71
674.45	2279.68
674.59	2209.47
674.73	2359.26
674.87	2186.06
675.01	2200.10
675.15	2190.74
675.29	2221.17
675.43	2319.47
675.56	2270.32
675.70	2363.94
675.84	2293.72
675.98	2291.38
676.12	2200.10
676.26	2300.75
676.40	2232.87
676.54	2270.32
676.68	2176.70
676.82	2099.46
676.96	2172.02
677.10	2160.31
677.23	2172.02
677.37	2155.63
677.51	2153.29
677.65	2256.28
677.79	2113.50
677.93	2136.91
678.07	2139.25
678.21	2146.27
678.34	2132.23
678.48	2071.37
678.62	2181.38
678.76	2162.66
678.90	2176.70
679.04	2059.67
679.18	2186.06
679.31	2104.14
679.45	1952.01
679.59	2118.18
679.73	2062.01
679.87	1987.11
680.00	2078.40
680.14	2125.21
680.28	2029.24
680.42	2001.16
680.56	2024.56
680.70	1952.01
680.83	2054.99
680.97	1865.41
681.11	2022.22
681.25	2120.53
681.39	1952.01
681.52	1998.82
681.66	1952.01
681.80	1991.80
681.94	2033.93
682.07	1926.26
682.21	1982.43
682.35	1905.20
682.49	1928.60
682.62	1827.96
682.76	1832.64
682.90	1987.11
683.04	1975.41
683.17	1849.02
683.31	1884.13
683.45	2059.67
683.59	1856.04
683.72	1760.08
683.86	1692.21
684.00	1769.44
684.13	1755.40
684.27	1881.79
684.41	1837.32
684.55	1874.77
684.68	1724.97
684.82	1699.23
684.96	1769.44
685.09	1650.08
685.23	1792.85
685.37	1750.72
685.50	1806.89
685.64	1790.51
685.78	1720.29
685.91	1699.23
686.05	1720.29
686.19	1659.44
686.32	1598.59
686.46	1629.01
686.60	1210.06
686.73	1156.22
686.87	1048.56
687.01	1078.99
687.14	947.92
687.28	1071.97
687.42	1055.58
687.55	1088.35
687.69	1277.93
687.82	1359.85
687.96	1423.05
688.10	1455.81
688.23	1439.43
688.37	1289.64
688.50	1430.07
688.64	1392.62
688.78	1299.00
688.91	1254.53
689.05	1249.85
689.18	1263.89
689.32	1221.76
689.46	1196.01
689.59	1249.85
689.73	1191.33
689.86	1200.69
690.00	1163.25
690.13	1259.21
690.27	1273.25
690.41	1256.87
690.54	1282.61
690.68	1240.48
690.81	1317.72
690.95	1411.34
691.08	1387.94
691.22	1284.95
691.35	1289.64
691.49	1252.19
691.62	1329.42
691.76	1233.46
691.89	1280.27
692.03	1348.15
692.16	1228.78
692.30	1139.84
692.43	1153.88
692.57	1172.61
692.70	1123.46
692.84	1172.61
692.97	1055.58
693.11	1039.20
693.24	1095.37
693.38	1102.39
693.51	1186.65
693.65	1139.84
693.78	1034.52
693.92	1029.84
694.05	922.17
694.19	933.87
694.32	1022.81
694.45	1006.43
694.59	1060.26
694.72	1034.52
694.86	1053.24
694.99	1015.79
695.13	1015.79
695.26	1093.03
695.39	1053.24
695.53	1022.81
695.66	1111.75
695.80	1015.79
695.93	1071.97
696.07	1029.84
696.20	1111.75
696.33	1118.78
696.47	1135.16
696.60	1263.89
696.73	1130.48
696.87	1149.20
697.00	1132.82
697.14	1167.93
697.27	1146.86
697.40	1114.10
697.54	1142.18
697.67	1165.59
697.80	1046.22
697.94	1111.75
698.07	1130.48
698.21	1074.31
698.34	1146.86
698.47	1011.11
698.61	957.28
698.74	938.55
698.87	968.98
699.01	910.47
699.14	866.00
699.27	896.43
699.40	1055.58
699.54	933.87
699.67	966.64
699.80	861.32
699.94	919.83
700.07	1018.13
700.20	901.11
700.34	908.13
700.47	823.87
700.60	929.19
700.73	950.26
700.87	880.04
701.00	821.53
701.13	896.43
701.26	983.02
701.40	933.87
701.53	786.42
701.66	828.55
701.79	807.48
701.93	950.26
702.06	837.91
702.19	793.44
702.32	856.64
702.46	854.30
702.59	882.38
702.72	807.48
702.85	889.40
702.99	880.04
703.12	901.11
703.25	954.94
703.38	910.47
703.51	908.13
703.65	894.08
703.78	896.43
703.91	844.93
704.04	861.32
704.17	1008.77
704.31	786.42
704.44	847.27
704.57	875.36
704.70	891.74
704.83	763.01
704.96	856.64
705.10	784.08
705.23	809.83
>>>>>End Processed Spectral Data<<<<<
