SpectraSuite Data File
++++++++++++++++++++++++++++++++++++
Date: Fri Oct 04 11:44:25 GMT-05:00 2013
User: price-jones
Dark Spectrum Present: No
Reference Spectrum Present: No
Number of Sampled Component Spectra: 1
Spectrometers: USB2+H05261
Integration Time (usec): 100000 (USB2+H05261)
Spectra Averaged: 1 (USB2+H05261)
Boxcar Smoothing: 0 (USB2+H05261)
Correct for Electrical Dark: No (USB2+H05261)
Strobe/Lamp Enabled: No (USB2+H05261)
Correct for Detector Non-linearity: No (USB2+H05261)
Correct for Stray Light: No (USB2+H05261)
Number of Pixels in Processed Spectrum: 2048
>>>>>Begin Processed Spectral Data<<<<<
365.73	88.94
365.92	88.94
366.12	88.94
366.32	14.04
366.52	2.34
366.72	0.00
366.91	0.00
367.11	0.00
367.31	0.00
367.51	0.00
367.70	0.00
367.90	0.00
368.10	0.00
368.30	0.00
368.49	0.00
368.69	0.00
368.89	0.00
369.09	0.00
369.28	0.00
369.48	0.00
369.68	0.00
369.87	0.00
370.07	0.00
370.27	51.49
370.47	42.13
370.66	156.82
370.86	248.10
371.06	248.10
371.25	365.12
371.45	255.12
371.65	231.71
371.84	196.60
372.04	280.86
372.24	229.37
372.44	266.82
372.63	187.24
372.83	220.01
373.03	198.95
373.22	262.14
373.42	217.67
373.62	236.39
373.81	299.59
374.01	308.95
374.21	250.44
374.40	283.20
374.60	362.78
374.79	248.10
374.99	332.36
375.19	330.02
375.38	308.95
375.58	306.61
375.78	294.91
375.97	374.49
376.17	362.78
376.37	299.59
376.56	250.44
376.76	362.78
376.95	421.30
377.15	379.17
377.35	423.64
377.54	437.68
377.74	376.83
377.93	456.40
378.13	376.83
378.33	421.30
378.52	269.16
378.72	262.14
378.91	337.04
379.11	322.99
379.31	301.93
379.50	266.82
379.70	379.17
379.89	383.85
380.09	428.32
380.28	355.76
380.48	318.31
380.68	388.53
380.87	308.95
381.07	386.19
381.26	320.65
381.46	325.33
381.65	346.40
381.85	276.18
382.04	311.29
382.24	259.80
382.43	224.69
382.63	311.29
382.83	241.08
383.02	287.89
383.22	292.57
383.41	337.04
383.61	236.39
383.80	376.83
384.00	297.25
384.19	313.63
384.39	367.46
384.58	313.63
384.78	416.62
384.97	341.72
385.17	299.59
385.36	327.68
385.56	325.33
385.75	365.12
385.95	388.53
386.14	395.55
386.34	411.93
386.53	386.19
386.72	360.44
386.92	374.49
387.11	365.12
387.31	322.99
387.50	346.40
387.70	358.10
387.89	365.12
388.09	322.99
388.28	404.91
388.48	353.42
388.67	470.45
388.86	365.12
389.06	404.91
389.25	414.27
389.45	500.87
389.64	507.90
389.84	463.43
390.03	470.45
390.22	498.53
390.42	456.40
390.61	524.28
390.81	589.82
391.00	479.81
391.19	559.39
391.39	404.91
391.58	351.08
391.78	435.34
391.97	416.62
392.16	386.19
392.36	365.12
392.55	458.74
392.75	339.38
392.94	229.37
393.13	234.05
393.33	217.67
393.52	299.59
393.71	435.34
393.91	339.38
394.10	383.85
394.29	463.43
394.49	496.19
394.68	454.06
394.88	500.87
395.07	451.72
395.26	517.26
395.46	447.04
395.65	538.32
395.84	486.83
396.04	437.68
396.23	344.06
396.42	313.63
396.62	341.72
396.81	327.68
397.00	383.85
397.19	514.92
397.39	479.81
397.58	624.92
397.77	573.43
397.97	655.35
398.16	601.52
398.35	711.52
398.55	606.20
398.74	706.84
398.93	624.92
399.12	634.29
399.32	697.48
399.51	608.54
399.70	662.37
399.90	688.12
400.09	676.41
400.28	690.46
400.47	648.33
400.67	744.29
400.86	697.48
401.05	809.83
401.24	697.48
401.44	718.54
401.63	748.97
401.82	699.82
402.01	734.93
402.21	713.86
402.40	772.38
402.59	744.29
402.78	713.86
402.97	664.71
403.17	685.78
403.36	770.04
403.55	765.36
403.74	758.33
403.93	851.96
404.13	812.17
404.32	753.65
404.51	924.51
404.70	903.45
404.89	828.55
405.09	767.70
405.28	802.80
405.47	688.12
405.66	669.39
405.85	671.73
406.05	723.23
406.24	739.61
406.43	772.38
406.62	760.67
406.81	746.63
407.00	744.29
407.20	720.88
407.39	777.06
407.58	746.63
407.77	795.78
407.96	767.70
408.15	849.61
408.34	751.31
408.54	823.87
408.73	851.96
408.92	891.74
409.11	837.91
409.30	798.12
409.49	713.86
409.68	688.12
409.87	662.37
410.07	660.03
410.26	802.80
410.45	786.42
410.64	856.64
410.83	758.33
411.02	861.32
411.21	912.81
411.40	910.47
411.59	873.02
411.78	833.23
411.98	978.34
412.17	863.66
412.36	809.83
412.55	889.40
412.74	837.91
412.93	882.38
413.12	891.74
413.31	924.51
413.50	961.96
413.69	973.66
413.88	875.36
414.07	802.80
414.26	842.59
414.45	875.36
414.64	961.96
414.83	929.19
415.02	866.00
415.22	847.27
415.41	985.37
415.60	905.79
415.79	957.28
415.98	973.66
416.17	1013.45
416.36	954.94
416.55	936.21
416.74	814.51
416.93	936.21
417.12	805.14
417.31	926.85
417.50	978.34
417.69	922.17
417.88	978.34
418.07	950.26
418.26	926.85
418.45	919.83
418.64	1069.62
418.83	1109.41
419.02	947.92
419.21	933.87
419.39	954.94
419.58	954.94
419.77	945.58
419.96	908.13
420.15	1034.52
420.34	940.90
420.53	1057.92
420.72	1004.09
420.91	1013.45
421.10	999.41
421.29	961.96
421.48	1006.43
421.67	1062.60
421.86	905.79
422.05	943.24
422.24	901.11
422.43	933.87
422.61	973.66
422.80	933.87
422.99	966.64
423.18	938.55
423.37	940.90
423.56	957.28
423.75	1069.62
423.94	985.37
424.13	973.66
424.32	849.61
424.50	894.08
424.69	901.11
424.88	887.06
425.07	915.15
425.26	976.00
425.45	908.13
425.64	809.83
425.83	952.60
426.01	1036.86
426.20	936.21
426.39	940.90
426.58	926.85
426.77	816.85
426.96	896.43
427.15	819.19
427.33	840.25
427.52	912.81
427.71	889.40
427.90	924.51
428.09	842.59
428.28	844.93
428.46	908.13
428.65	938.55
428.84	917.49
429.03	917.49
429.22	807.48
429.40	772.38
429.59	631.94
429.78	760.67
429.97	739.61
430.16	667.05
430.34	737.27
430.53	660.03
430.72	711.52
430.91	800.46
431.10	840.25
431.28	968.98
431.47	1107.07
431.66	1083.67
431.85	980.68
432.03	936.21
432.22	1029.84
432.41	1020.47
432.60	1018.13
432.79	1008.77
432.97	1097.71
433.16	1032.18
433.35	1048.56
433.54	882.38
433.72	901.11
433.91	905.79
434.10	936.21
434.28	983.02
434.47	1032.18
434.66	1160.91
434.85	1090.69
435.03	1151.54
435.22	1399.64
435.41	1902.86
435.59	1825.62
435.78	1603.27
435.97	1483.90
436.16	1249.85
436.34	1104.73
436.53	1149.20
436.72	1130.48
436.90	1039.20
437.09	1132.82
437.28	1083.67
437.46	1020.47
437.65	1121.12
437.84	1048.56
438.02	973.66
438.21	952.60
438.40	1055.58
438.58	1032.18
438.77	1128.14
438.96	1086.01
439.14	1062.60
439.33	1076.65
439.52	1107.07
439.70	1132.82
439.89	1128.14
440.08	1144.52
440.26	1193.67
440.45	1170.27
440.63	1160.91
440.82	1233.46
441.01	1193.67
441.19	1226.44
441.38	1240.48
441.57	1233.46
441.75	1273.25
441.94	1306.02
442.12	1247.51
442.31	1249.85
442.50	1301.34
442.68	1324.74
442.87	1245.16
443.05	1163.25
443.24	1256.87
443.43	1310.70
443.61	1364.53
443.80	1284.95
443.98	1268.57
444.17	1268.57
444.35	1254.53
444.54	1277.93
444.73	1249.85
444.91	1226.44
445.10	1116.44
445.28	1078.99
445.47	1174.95
445.65	1188.99
445.84	1139.84
446.02	1184.31
446.21	1233.46
446.39	1181.97
446.58	1263.89
446.77	1291.98
446.95	1212.40
447.14	1336.45
447.32	1364.53
447.51	1306.02
447.69	1345.81
447.88	1193.67
448.06	1263.89
448.25	1221.76
448.43	1313.04
448.62	1217.08
448.80	1224.10
448.99	1352.83
449.17	1324.74
449.36	1315.38
449.54	1313.04
449.73	1249.85
449.91	1397.30
450.10	1401.98
450.28	1453.47
450.46	1495.60
450.65	1420.71
450.83	1502.62
451.02	1394.96
451.20	1376.24
451.39	1359.85
451.57	1336.45
451.76	1406.66
451.94	1308.36
452.13	1217.08
452.31	1277.93
452.49	1303.68
452.68	1240.48
452.86	1228.78
453.05	1331.76
453.23	1198.35
453.42	1240.48
453.60	1401.98
453.78	1373.89
453.97	1369.21
454.15	1345.81
454.34	1350.49
454.52	1299.00
454.70	1366.87
454.89	1352.83
455.07	1343.47
455.26	1296.66
455.44	1345.81
455.62	1411.34
455.81	1418.36
455.99	1418.36
456.17	1334.11
456.36	1465.18
456.54	1348.15
456.73	1437.09
456.91	1502.62
457.09	1401.98
457.28	1406.66
457.46	1383.26
457.64	1462.83
457.83	1336.45
458.01	1357.51
458.19	1423.05
458.38	1392.62
458.56	1378.58
458.74	1352.83
458.93	1359.85
459.11	1385.60
459.29	1362.19
459.48	1430.07
459.66	1399.64
459.84	1369.21
460.03	1462.83
460.21	1460.49
460.39	1373.89
460.57	1446.45
460.76	1458.15
460.94	1507.30
461.12	1423.05
461.31	1502.62
461.49	1490.92
461.67	1387.94
461.85	1551.78
462.04	1411.34
462.22	1975.41
462.40	1533.05
462.59	1540.07
462.77	1519.01
462.95	1497.94
463.13	1378.58
463.32	1430.07
463.50	1432.41
463.68	1303.68
463.86	1451.13
464.05	1284.95
464.23	1357.51
464.41	1439.43
464.59	1280.27
464.78	1345.81
464.96	1465.18
465.14	1397.30
465.32	1387.94
465.50	1519.01
465.69	1458.15
465.87	1483.90
466.05	1430.07
466.23	1343.47
466.41	1324.74
466.60	1357.51
466.78	1359.85
466.96	1383.26
467.14	1291.98
467.32	1455.81
467.51	1362.19
467.69	1352.83
467.87	1446.45
468.05	1404.32
468.23	1425.39
468.41	1490.92
468.60	1467.52
468.78	1392.62
468.96	1357.51
469.14	1460.49
469.32	1315.38
469.50	1401.98
469.69	1343.47
469.87	1317.72
470.05	1385.60
470.23	1390.28
470.41	1242.82
470.59	1366.87
470.77	1441.77
470.95	1380.92
471.14	1437.09
471.32	1401.98
471.50	1544.75
471.68	1472.20
471.86	1549.43
472.04	1514.33
472.22	1453.47
472.40	1380.92
472.58	1453.47
472.77	1345.81
472.95	1373.89
473.13	1549.43
473.31	1472.20
473.49	1465.18
473.67	1406.66
473.85	1537.73
474.03	1427.73
474.21	1458.15
474.39	1493.26
474.57	1591.56
474.75	1582.20
474.93	1479.22
475.12	1441.77
475.30	1504.96
475.48	1472.20
475.66	1504.96
475.84	1467.52
476.02	1479.22
476.20	1460.49
476.38	1490.92
476.56	1540.07
476.74	1572.84
476.92	1549.43
477.10	1551.78
477.28	1687.53
477.46	1600.93
477.64	1624.33
477.82	1696.89
478.00	1650.08
478.18	1591.56
478.36	1650.08
478.54	1584.54
478.72	1640.72
478.90	1671.14
479.08	1760.08
479.26	1774.13
479.44	1778.81
479.62	1633.69
479.80	1643.06
479.98	1806.89
480.16	1785.83
480.34	1753.06
480.52	1722.63
480.70	1905.20
480.88	1736.68
481.06	1743.70
481.24	1809.23
481.41	1881.79
481.59	1804.55
481.77	1703.91
481.95	1846.68
482.13	1832.64
482.31	1914.56
482.49	1743.70
482.67	1895.83
482.85	1881.79
483.03	1989.46
483.21	1949.67
483.39	1952.01
483.57	1858.39
483.74	1846.68
483.92	1767.10
484.10	2005.84
484.28	2078.40
484.46	2062.01
484.64	2038.61
484.82	1961.37
485.00	1874.77
485.18	1970.73
485.35	1891.15
485.53	1776.47
485.71	1629.01
485.89	1624.33
486.07	1764.76
486.25	1811.57
486.43	1998.82
486.61	1916.90
486.78	1909.88
486.96	1863.07
487.14	2064.35
487.32	2015.20
487.50	1952.01
487.68	2129.89
487.85	2064.35
488.03	2284.36
488.21	2132.23
488.39	2132.23
488.57	2099.46
488.75	2052.65
488.92	2321.81
489.10	2298.41
489.28	2345.22
489.46	2373.30
489.64	2286.70
489.81	2260.96
489.99	2291.38
490.17	2275.00
490.35	2394.37
490.53	2340.54
490.70	2275.00
490.88	2473.95
491.06	2326.49
491.24	2314.79
491.41	2282.02
491.59	2190.74
491.77	2043.29
491.95	2094.78
492.13	2167.34
492.30	2296.07
492.48	2431.82
492.66	2523.10
492.84	2403.73
493.01	2466.92
493.19	2406.07
493.37	2303.09
493.54	2303.09
493.72	2361.60
493.90	2382.67
494.08	2438.84
494.25	2445.86
494.43	2462.24
494.61	2572.25
494.79	2565.23
494.96	2562.89
495.14	2434.16
495.32	2415.43
495.49	2399.05
495.67	2431.82
495.85	2562.89
496.02	2605.02
496.20	2523.10
496.38	2455.22
496.55	2595.65
496.73	2743.11
496.91	2633.10
497.09	2658.85
497.26	2628.42
497.44	2553.52
497.62	2525.44
497.79	2429.48
497.97	2396.71
498.14	2459.90
498.32	2516.08
498.50	2600.34
498.67	2670.55
498.85	2590.97
499.03	2642.46
499.20	2595.65
499.38	2616.72
499.56	2651.83
499.73	2682.25
499.91	2626.08
500.08	2551.18
500.26	2490.33
500.44	2361.60
500.61	2555.86
500.79	2532.46
500.97	2565.23
501.14	2373.30
501.32	2429.48
501.49	2380.32
501.67	2396.71
501.84	2462.24
502.02	2492.67
502.20	2530.12
502.37	2527.78
502.55	2537.14
502.72	2546.50
502.90	2574.59
503.07	2628.42
503.25	2420.11
503.43	2485.65
503.60	2235.21
503.78	2394.37
503.95	2499.69
504.13	2534.80
504.30	2576.93
504.48	2609.70
504.65	2495.01
504.83	2633.10
505.01	2583.95
505.18	2677.57
505.36	2595.65
505.53	2780.56
505.71	2698.64
505.88	2656.51
506.06	2684.59
506.23	2588.63
506.41	2572.25
506.58	2551.18
506.76	2628.42
506.93	2642.46
507.11	2595.65
507.28	2537.14
507.46	2513.74
507.63	2637.78
507.81	2581.61
507.98	2511.39
508.16	2600.34
508.33	2700.98
508.50	2665.87
508.68	2682.25
508.85	2747.79
509.03	2794.60
509.20	2696.30
509.38	2651.83
509.55	2670.55
509.73	2595.65
509.90	2759.49
510.08	2675.23
510.25	2675.23
510.42	2771.19
510.60	2827.37
510.77	2635.44
510.95	2773.53
511.12	2724.38
511.30	2771.19
511.47	2806.30
511.64	2904.60
511.82	2836.73
511.99	2684.59
512.17	2703.32
512.34	2504.37
512.51	2583.95
512.69	2686.94
512.86	2775.88
513.04	2747.79
513.21	2686.94
513.38	2747.79
513.56	2710.34
513.73	2593.31
513.90	2684.59
514.08	2684.59
514.25	2710.34
514.43	2588.63
514.60	2565.23
514.77	2607.36
514.95	2525.44
515.12	2743.11
515.29	2705.66
515.47	2752.47
515.64	2792.26
515.81	2780.56
515.99	2764.17
516.16	2567.57
516.33	2401.39
516.51	2246.91
516.68	2272.66
516.85	2188.40
517.03	2286.70
517.20	2392.03
517.37	2602.68
517.54	2668.21
517.72	2715.02
517.89	2406.07
518.06	2153.29
518.24	2340.54
518.41	2541.82
518.58	2548.84
518.75	2623.74
518.93	2691.62
519.10	2609.70
519.27	2581.61
519.45	2600.34
519.62	2670.55
519.79	2813.32
519.96	2609.70
520.14	2633.10
520.31	2499.69
520.48	2523.10
520.65	2761.83
520.83	2757.15
521.00	2736.09
521.17	2733.75
521.34	2715.02
521.52	2841.41
521.69	2768.85
521.86	2942.05
522.03	2813.32
522.20	2640.12
522.38	2698.64
522.55	2642.46
522.72	2677.57
522.89	2766.51
523.07	2682.25
523.24	2696.30
523.41	2764.17
523.58	2813.32
523.75	2787.58
523.92	2867.16
524.10	2729.06
524.27	2794.60
524.44	2757.15
524.61	2822.69
524.78	2892.90
524.96	2759.49
525.13	2726.72
525.30	2909.29
525.47	2878.86
525.64	2794.60
525.81	2715.02
525.98	2656.51
526.16	2466.92
526.33	2380.32
526.50	2502.03
526.67	2370.96
526.84	2352.24
527.01	2532.46
527.18	2649.49
527.36	2719.70
527.53	2700.98
527.70	2675.23
527.87	2691.62
528.04	2708.00
528.21	2654.17
528.38	2906.95
528.55	2832.05
528.72	2918.65
528.89	2913.97
529.07	2827.37
529.24	2864.82
529.41	2846.09
529.58	2682.25
529.75	2647.15
529.92	2827.37
530.09	2832.05
530.26	2813.32
530.43	3023.97
530.60	2881.20
530.77	2801.62
530.94	2916.31
531.11	2820.35
531.28	2661.19
531.46	2731.41
531.63	2785.24
531.80	2853.11
531.97	2815.66
532.14	2684.59
532.31	2672.89
532.48	2654.17
532.65	2675.23
532.82	2738.43
532.99	2822.69
533.16	2836.73
533.33	2888.22
533.50	2878.86
533.67	2775.88
533.84	2675.23
534.01	2668.21
534.18	2745.45
534.35	2722.04
534.52	2738.43
534.69	2953.76
534.86	2785.24
535.03	2883.54
535.20	2906.95
535.37	2965.46
535.54	2892.90
535.71	2918.65
535.88	2832.05
536.05	2813.32
536.22	2782.90
536.38	2757.15
536.55	2764.17
536.72	2712.68
536.89	2656.51
537.06	2738.43
537.23	2864.82
537.40	2874.18
537.57	2920.99
537.74	2916.31
537.91	2832.05
538.08	2904.60
538.25	2904.60
538.42	2864.82
538.59	2963.12
538.75	2923.33
538.92	2820.35
539.09	2892.90
539.26	2778.22
539.43	2801.62
539.60	2904.60
539.77	2984.18
539.94	2869.50
540.11	2899.92
540.28	2787.58
540.44	2874.18
540.61	2876.52
540.78	2944.39
540.95	3038.02
541.12	3316.54
541.29	3459.31
541.46	3478.04
541.62	3442.93
541.79	3442.93
541.96	3419.52
542.13	3316.54
542.30	3281.43
542.47	3281.43
542.63	3162.06
542.80	3199.51
542.97	3335.26
543.14	3042.70
543.31	3215.90
543.48	3227.60
543.64	3356.33
543.81	3419.52
543.98	3300.16
544.15	3290.79
544.32	3321.22
544.48	3281.43
544.65	3239.30
544.82	3309.52
544.99	3398.46
545.16	3213.56
545.32	3307.18
545.49	3887.63
545.66	4346.37
545.83	4711.50
546.00	4599.15
546.16	3882.95
546.33	3702.73
546.50	3314.20
546.67	3342.28
546.83	3201.85
547.00	3005.25
547.17	3059.08
547.34	2928.01
547.50	2953.76
547.67	2972.48
547.84	2855.45
548.00	3033.33
548.17	2986.52
548.34	3026.31
548.51	3021.63
548.67	3012.27
548.84	2991.20
549.01	2993.55
549.18	2895.24
549.34	2911.63
549.51	2979.50
549.68	2906.95
549.84	2846.09
550.01	2785.24
550.18	2920.99
550.34	3066.10
550.51	2726.72
550.68	2885.88
550.84	2689.28
551.01	2745.45
551.18	2825.03
551.34	2628.42
551.51	2841.41
551.68	2799.28
551.84	2878.86
552.01	2803.96
552.18	2778.22
552.34	2684.59
552.51	2696.30
552.68	2656.51
552.84	2754.81
553.01	2782.90
553.18	2794.60
553.34	2710.34
553.51	2712.68
553.67	2827.37
553.84	2864.82
554.01	2616.72
554.17	2614.38
554.34	2705.66
554.51	2857.79
554.67	2799.28
554.84	2682.25
555.00	2661.19
555.17	2612.04
555.33	2780.56
555.50	2672.89
555.67	2668.21
555.83	2663.53
556.00	2579.27
556.16	2712.68
556.33	2628.42
556.50	2546.50
556.66	2523.10
556.83	2513.74
556.99	2537.14
557.16	2520.76
557.32	2532.46
557.49	2569.91
557.65	2633.10
557.82	2574.59
557.98	2597.99
558.15	2518.42
558.32	2436.50
558.48	2516.08
558.65	2413.09
558.81	2506.71
558.98	2513.74
559.14	2431.82
559.31	2450.54
559.47	2431.82
559.64	2436.50
559.80	2464.58
559.97	2511.39
560.13	2483.31
560.30	2544.16
560.46	2581.61
560.63	2581.61
560.79	2478.63
560.96	2429.48
561.12	2455.22
561.29	2317.13
561.45	2427.14
561.61	2495.01
561.78	2658.85
561.94	2429.48
562.11	2473.95
562.27	2427.14
562.44	2427.14
562.60	2361.60
562.77	2455.22
562.93	2614.38
563.10	2583.95
563.26	2448.20
563.42	2485.65
563.59	2408.41
563.75	2361.60
563.92	2457.56
564.08	2406.07
564.24	2436.50
564.41	2441.18
564.57	2408.41
564.74	2478.63
564.90	2422.45
565.07	2424.80
565.23	2415.43
565.39	2394.37
565.56	2340.54
565.72	2228.19
565.88	2368.62
566.05	2260.96
566.21	2401.39
566.38	2466.92
566.54	2385.01
566.70	2469.27
566.87	2363.94
567.03	2392.03
567.19	2429.48
567.36	2427.14
567.52	2471.61
567.68	2370.96
567.85	2333.51
568.01	2275.00
568.17	2221.17
568.34	2090.10
568.50	2305.43
568.66	2225.85
568.83	2230.53
568.99	2303.09
569.15	2251.60
569.32	2312.45
569.48	2277.34
569.64	2179.04
569.81	2214.15
569.97	2326.49
570.13	2324.15
570.30	2296.07
570.46	2104.14
570.62	2216.49
570.78	2153.29
570.95	2186.06
571.11	2202.44
571.27	2242.23
571.43	2172.02
571.60	2256.28
571.76	2270.32
571.92	2225.85
572.09	2286.70
572.25	2190.74
572.41	2129.89
572.57	2195.42
572.74	2331.17
572.90	2272.66
573.06	2303.09
573.22	2211.81
573.38	2195.42
573.55	2211.81
573.71	2244.57
573.87	2200.10
574.03	2221.17
574.20	2214.15
574.36	2155.63
574.52	2183.72
574.68	2155.63
574.84	2230.53
575.01	2160.31
575.17	2078.40
575.33	2113.50
575.49	2211.81
575.65	2251.60
575.82	2127.55
575.98	2204.78
576.14	2221.17
576.30	2230.53
576.46	2413.09
576.62	2485.65
576.79	2572.25
576.95	2537.14
577.11	2370.96
577.27	2289.04
577.43	2277.34
577.59	2282.02
577.75	2146.27
577.92	2148.61
578.08	2083.08
578.24	2134.57
578.40	2190.74
578.56	2265.64
578.72	2483.31
578.88	2506.71
579.04	2492.67
579.21	2321.81
579.37	2176.70
579.53	2289.04
579.69	2272.66
579.85	2221.17
580.01	2352.24
580.17	2267.98
580.33	2214.15
580.49	2202.44
580.65	2223.51
580.82	2179.04
580.98	2282.02
581.14	2291.38
581.30	2265.64
581.46	2270.32
581.62	2244.57
581.78	2300.75
581.94	2279.68
582.10	2375.64
582.26	2293.72
582.42	2307.77
582.58	2340.54
582.74	2214.15
582.90	2216.49
583.06	2319.47
583.22	2228.19
583.38	2331.17
583.54	2370.96
583.70	2408.41
583.86	2317.13
584.02	2335.85
584.18	2375.64
584.34	2289.04
584.50	2319.47
584.66	2237.55
584.82	2160.31
584.98	2200.10
585.14	2209.47
585.30	2195.42
585.46	2132.23
585.62	2113.50
585.78	2186.06
585.94	2162.66
586.10	2275.00
586.26	2202.44
586.42	2305.43
586.58	2303.09
586.74	2228.19
586.90	2282.02
587.06	2232.87
587.22	2284.36
587.38	2328.83
587.54	2162.66
587.70	2106.48
587.86	2010.52
588.02	1982.43
588.18	1966.05
588.34	1809.23
588.49	1621.99
588.65	1629.01
588.81	1572.84
588.97	1579.86
589.13	1626.67
589.29	1600.93
589.45	1682.85
589.61	1572.84
589.77	1734.34
589.93	1694.55
590.08	1799.87
590.24	1666.46
590.40	1867.75
590.56	1795.19
590.72	1865.41
590.88	1755.40
591.04	1851.36
591.20	1774.13
591.35	1966.05
591.51	1827.96
591.67	1675.82
591.83	1757.74
591.99	1898.17
592.15	1851.36
592.31	1916.90
592.46	1860.73
592.62	2026.90
592.78	1952.01
592.94	1956.69
593.10	1933.28
593.26	2026.90
593.41	2111.16
593.57	2024.56
593.73	1785.83
593.89	1851.36
594.05	1827.96
594.20	1732.00
594.36	1696.89
594.52	1708.59
594.68	1556.46
594.84	1823.28
594.99	1891.15
595.15	1806.89
595.31	1973.07
595.47	1856.04
595.62	1827.96
595.78	1912.22
595.94	1940.30
596.10	1881.79
596.25	1867.75
596.41	1874.77
596.57	1694.55
596.73	1860.73
596.88	1797.53
597.04	1825.62
597.20	1849.02
597.36	1820.94
597.51	1860.73
597.67	1792.85
597.83	1842.00
597.99	1966.05
598.14	1839.66
598.30	1891.15
598.46	1860.73
598.61	1994.14
598.77	1930.94
598.93	1900.52
599.09	1930.94
599.24	2038.61
599.40	2090.10
599.56	1952.01
599.71	2008.18
599.87	1963.71
600.03	2031.58
600.18	1895.83
600.34	1933.28
600.50	1912.22
600.65	1898.17
600.81	1879.45
600.97	1900.52
601.12	2019.88
601.28	1926.26
601.44	1743.70
601.59	1970.73
601.75	1891.15
601.91	1783.49
602.06	1830.30
602.22	1949.67
602.37	1881.79
602.53	1942.64
602.69	1802.21
602.84	1842.00
603.00	1863.07
603.16	1905.20
603.31	2029.24
603.47	1966.05
603.62	1905.20
603.78	1926.26
603.94	1914.56
604.09	1930.94
604.25	1907.54
604.40	1870.09
604.56	1891.15
604.71	1923.92
604.87	1935.62
605.03	1909.88
605.18	1996.48
605.34	1895.83
605.49	1968.39
605.65	1849.02
605.80	1781.15
605.96	1708.59
606.12	1944.99
606.27	1914.56
606.43	1806.89
606.58	1954.35
606.74	1984.77
606.89	1902.86
607.05	1916.90
607.20	1893.49
607.36	1839.66
607.51	1914.56
607.67	1888.81
607.82	1991.80
607.98	1991.80
608.13	1823.28
608.29	1923.92
608.44	1872.43
608.60	1907.54
608.75	1935.62
608.91	1912.22
609.06	2017.54
609.22	2122.87
609.37	2017.54
609.53	2108.82
609.68	2087.76
609.84	2069.03
609.99	2057.33
610.15	2335.85
610.30	2487.99
610.46	2612.04
610.61	2928.01
610.76	3248.66
610.92	3538.89
611.07	3566.98
611.23	3707.41
611.38	3581.02
611.54	3309.52
611.69	3105.89
611.84	2869.50
612.00	2729.06
612.15	2562.89
612.31	2370.96
612.46	2363.94
612.62	2303.09
612.77	2305.43
612.92	2258.62
613.08	2321.81
613.23	2195.42
613.39	2017.54
613.54	2125.21
613.69	2127.55
613.85	2150.95
614.00	2134.57
614.15	2120.53
614.31	2172.02
614.46	2052.65
614.62	2080.74
614.77	2120.53
614.92	2047.97
615.08	2036.27
615.23	1994.14
615.38	2019.88
615.54	1970.73
615.69	1886.47
615.84	1813.92
616.00	1722.63
616.15	1816.26
616.30	1813.92
616.46	1701.57
616.61	1771.79
616.76	1790.51
616.92	1783.49
617.07	1689.87
617.22	1701.57
617.37	1790.51
617.53	1666.46
617.68	1685.19
617.83	1694.55
617.99	1783.49
618.14	1778.81
618.29	1739.02
618.45	1774.13
618.60	1643.06
618.75	1717.95
618.90	1647.74
619.06	1727.32
619.21	1750.72
619.36	1589.22
619.51	1664.12
619.67	1671.14
619.82	1657.10
619.97	1708.59
620.12	1748.38
620.28	1717.95
620.43	1682.85
620.58	1682.85
620.73	1673.48
620.89	1643.06
621.04	1607.95
621.19	1626.67
621.34	1624.33
621.49	1603.27
621.65	1605.61
621.80	1631.35
621.95	1605.61
622.10	1678.16
622.25	1710.93
622.41	1612.63
622.56	1741.36
622.71	1558.80
622.86	1706.25
623.01	1610.29
623.16	1614.97
623.32	1586.88
623.47	1680.50
623.62	1596.25
623.77	1614.97
623.92	1593.90
624.07	1547.09
624.23	1612.63
624.38	1535.39
624.53	1589.22
624.68	1664.12
624.83	1598.59
624.98	1645.40
625.13	1654.76
625.29	1533.05
625.44	1533.05
625.59	1465.18
625.74	1589.22
625.89	1497.94
626.04	1577.52
626.19	1507.30
626.34	1526.03
626.49	1586.88
626.65	1533.05
626.80	1540.07
626.95	1629.01
627.10	1631.35
627.25	1514.33
627.40	1425.39
627.55	1397.30
627.70	1373.89
627.85	1306.02
628.00	1411.34
628.15	1397.30
628.30	1439.43
628.45	1401.98
628.60	1472.20
628.76	1509.65
628.91	1437.09
629.06	1430.07
629.21	1397.30
629.36	1490.92
629.51	1387.94
629.66	1385.60
629.81	1394.96
629.96	1409.00
630.11	1497.94
630.26	1535.39
630.41	1561.14
630.56	1596.25
630.71	1568.16
630.86	1519.01
631.01	1514.33
631.16	1465.18
631.31	1383.26
631.46	1502.62
631.61	1409.00
631.76	1439.43
631.91	1392.62
632.06	1385.60
632.21	1394.96
632.36	1404.32
632.51	1306.02
632.66	1366.87
632.81	1488.58
632.96	1425.39
633.10	1409.00
633.25	1390.28
633.40	1308.36
633.55	1352.83
633.70	1352.83
633.85	1359.85
634.00	1289.64
634.15	1418.36
634.30	1401.98
634.45	1315.38
634.60	1270.91
634.75	1359.85
634.90	1324.74
635.05	1345.81
635.19	1299.00
635.34	1413.68
635.49	1348.15
635.64	1371.55
635.79	1263.89
635.94	1366.87
636.09	1277.93
636.24	1369.21
636.39	1301.34
636.53	1385.60
636.68	1336.45
636.83	1315.38
636.98	1383.26
637.13	1268.57
637.28	1357.51
637.43	1373.89
637.57	1383.26
637.72	1355.17
637.87	1357.51
638.02	1369.21
638.17	1259.21
638.32	1413.68
638.46	1306.02
638.61	1364.53
638.76	1245.16
638.91	1371.55
639.06	1268.57
639.20	1348.15
639.35	1284.95
639.50	1299.00
639.65	1280.27
639.80	1284.95
639.94	1287.29
640.09	1357.51
640.24	1231.12
640.39	1263.89
640.54	1299.00
640.68	1341.13
640.83	1289.64
640.98	1146.86
641.13	1327.08
641.27	1139.84
641.42	1191.33
641.57	1270.91
641.72	1203.04
641.86	1247.51
642.01	1165.59
642.16	1261.55
642.31	1205.38
642.45	1259.21
642.60	1259.21
642.75	1231.12
642.90	1282.61
643.04	1224.10
643.19	1289.64
643.34	1238.14
643.48	1277.93
643.63	1266.23
643.78	1238.14
643.93	1228.78
644.07	1277.93
644.22	1172.61
644.37	1315.38
644.51	1184.31
644.66	1291.98
644.81	1231.12
644.95	1254.53
645.10	1160.91
645.25	1191.33
645.39	1165.59
645.54	1165.59
645.69	1224.10
645.83	1111.75
645.98	1167.93
646.13	1121.12
646.27	1100.05
646.42	1093.03
646.57	1027.50
646.71	1025.15
646.86	1123.46
647.00	1060.26
647.15	1025.15
647.30	971.32
647.44	950.26
647.59	1039.20
647.74	973.66
647.88	1078.99
648.03	922.17
648.17	1081.33
648.32	1074.31
648.47	1135.16
648.61	1083.67
648.76	1053.24
648.90	1011.11
649.05	1046.22
649.20	954.94
649.34	1029.84
649.49	973.66
649.63	1081.33
649.78	1062.60
649.92	1151.54
650.07	1207.72
650.21	1149.20
650.36	1242.82
650.51	1165.59
650.65	1188.99
650.80	1198.35
650.94	1151.54
651.09	1104.73
651.23	1043.88
651.38	997.07
651.52	898.77
651.67	922.17
651.81	1048.56
651.96	1062.60
652.10	1018.13
652.25	1151.54
652.39	1156.22
652.54	1144.52
652.68	1128.14
652.83	1114.10
652.97	1067.28
653.12	1118.78
653.26	950.26
653.41	1114.10
653.55	1067.28
653.70	1118.78
653.84	1062.60
653.99	1032.18
654.13	1088.35
654.27	1004.09
654.42	1001.75
654.56	990.05
654.71	1095.37
654.85	978.34
655.00	990.05
655.14	985.37
655.29	931.53
655.43	922.17
655.57	978.34
655.72	971.32
655.86	819.19
656.01	763.01
656.15	840.25
656.30	837.91
656.44	840.25
656.58	945.58
656.73	863.66
656.87	964.30
657.01	971.32
657.16	947.92
657.30	1004.09
657.45	1048.56
657.59	1114.10
657.73	1064.94
657.88	1057.92
658.02	1104.73
658.16	990.05
658.31	990.05
658.45	1006.43
658.60	1050.90
658.74	1013.45
658.88	1071.97
659.03	1055.58
659.17	1025.15
659.31	1093.03
659.46	933.87
659.60	1041.54
659.74	1001.75
659.89	1008.77
660.03	1036.86
660.17	1100.05
660.32	1067.28
660.46	957.28
660.60	1006.43
660.74	973.66
660.89	1013.45
661.03	990.05
661.17	1067.28
661.32	978.34
661.46	1008.77
661.60	1041.54
661.74	1064.94
661.89	1076.65
662.03	1128.14
662.17	1064.94
662.31	987.71
662.46	1025.15
662.60	1001.75
662.74	1004.09
662.88	1027.50
663.03	1022.81
663.17	1025.15
663.31	1069.62
663.45	929.19
663.60	1029.84
663.74	912.81
663.88	985.37
664.02	971.32
664.17	980.68
664.31	917.49
664.45	1062.60
664.59	1053.24
664.73	983.02
664.88	1149.20
665.02	957.28
665.16	912.81
665.30	987.71
665.44	1011.11
665.59	985.37
665.73	973.66
665.87	964.30
666.01	933.87
666.15	910.47
666.29	957.28
666.44	978.34
666.58	1069.62
666.72	933.87
666.86	976.00
667.00	968.98
667.14	945.58
667.28	910.47
667.43	990.05
667.57	1039.20
667.71	940.90
667.85	919.83
667.99	954.94
668.13	912.81
668.27	908.13
668.41	866.00
668.56	1046.22
668.70	1008.77
668.84	985.37
668.98	929.19
669.12	917.49
669.26	976.00
669.40	968.98
669.54	915.15
669.68	933.87
669.82	1008.77
669.96	837.91
670.10	966.64
670.25	971.32
670.39	954.94
670.53	875.36
670.67	870.68
670.81	976.00
670.95	952.60
671.09	922.17
671.23	1043.88
671.37	854.30
671.51	922.17
671.65	837.91
671.79	880.04
671.93	875.36
672.07	954.94
672.21	910.47
672.35	919.83
672.49	844.93
672.63	880.04
672.77	919.83
672.91	894.08
673.05	891.74
673.19	823.87
673.33	889.40
673.47	931.53
673.61	887.06
673.75	919.83
673.89	833.23
674.03	880.04
674.17	901.11
674.31	880.04
674.45	922.17
674.59	837.91
674.73	784.08
674.87	891.74
675.01	840.25
675.15	786.42
675.29	870.68
675.43	858.98
675.56	933.87
675.70	863.66
675.84	858.98
675.98	741.95
676.12	901.11
676.26	781.74
676.40	854.30
676.54	828.55
676.68	933.87
676.82	786.42
676.96	807.48
677.10	847.27
677.23	819.19
677.37	751.31
677.51	819.19
677.65	929.19
677.79	723.23
677.93	807.48
678.07	781.74
678.21	793.44
678.34	706.84
678.48	856.64
678.62	809.83
678.76	746.63
678.90	795.78
679.04	777.06
679.18	772.38
679.31	770.04
679.45	748.97
679.59	688.12
679.73	767.70
679.87	746.63
680.00	688.12
680.14	793.44
680.28	727.91
680.42	755.99
680.56	814.51
680.70	753.65
680.83	713.86
680.97	655.35
681.11	730.25
681.25	723.23
681.39	657.69
681.52	828.55
681.66	784.08
681.80	681.10
681.94	793.44
682.07	765.36
682.21	653.01
682.35	823.87
682.49	704.50
682.62	706.84
682.76	671.73
682.90	739.61
683.04	753.65
683.17	702.16
683.31	734.93
683.45	662.37
683.59	720.88
683.72	805.14
683.86	760.67
684.00	629.60
684.13	653.01
684.27	690.46
684.41	716.20
684.55	657.69
684.68	655.35
684.82	683.44
684.96	704.50
685.09	645.99
685.23	662.37
685.37	695.14
685.50	744.29
685.64	669.39
685.78	667.05
685.91	634.29
686.05	653.01
686.19	638.97
686.32	624.92
686.46	613.22
686.60	589.82
686.73	531.30
686.87	486.83
687.01	451.72
687.14	435.34
687.28	505.56
687.42	430.66
687.55	411.93
687.69	489.17
687.82	528.96
687.96	601.52
688.10	596.84
688.23	524.28
688.37	540.66
688.50	538.32
688.64	519.60
688.78	545.34
688.91	468.11
689.05	498.53
689.18	454.06
689.32	463.43
689.46	582.79
689.59	531.30
689.73	463.43
689.86	507.90
690.00	557.05
690.13	531.30
690.27	561.73
690.41	470.45
690.54	482.15
690.68	472.79
690.81	472.79
690.95	535.98
691.08	564.07
691.22	545.34
691.35	510.24
691.49	468.11
691.62	454.06
691.76	535.98
691.89	617.90
692.03	547.69
692.16	519.60
692.30	468.11
692.43	463.43
692.57	437.68
692.70	472.79
692.84	465.77
692.97	447.04
693.11	454.06
693.24	491.51
693.38	456.40
693.51	461.09
693.65	503.22
693.78	414.27
693.92	393.21
694.05	395.55
694.19	365.12
694.32	407.25
694.45	418.96
694.59	407.25
694.72	430.66
694.86	397.89
694.99	402.57
695.13	449.38
695.26	421.30
695.39	447.04
695.53	505.56
695.66	461.09
695.80	454.06
695.93	433.00
696.07	418.96
696.20	503.22
696.33	463.43
696.47	402.57
696.60	461.09
696.73	472.79
696.87	491.51
697.00	482.15
697.14	524.28
697.27	451.72
697.40	496.19
697.54	414.27
697.67	526.62
697.80	470.45
697.94	444.70
698.07	517.26
698.21	470.45
698.34	451.72
698.47	451.72
698.61	353.42
698.74	315.97
698.87	454.06
699.01	294.91
699.14	290.23
699.27	395.55
699.40	519.60
699.54	449.38
699.67	393.21
699.80	379.17
699.94	308.95
700.07	346.40
700.20	351.08
700.34	369.80
700.47	362.78
700.60	315.97
700.73	332.36
700.87	372.15
701.00	346.40
701.13	421.30
701.26	409.59
701.40	388.53
701.53	351.08
701.66	386.19
701.79	379.17
701.93	322.99
702.06	376.83
702.19	346.40
702.32	461.09
702.46	299.59
702.59	374.49
702.72	351.08
702.85	341.72
702.99	290.23
703.12	416.62
703.25	428.32
703.38	365.12
703.51	425.98
703.65	325.33
703.78	411.93
703.91	308.95
704.04	400.23
704.17	358.10
704.31	325.33
704.44	428.32
704.57	386.19
704.70	381.51
704.83	442.36
704.96	367.46
705.10	301.93
705.23	341.72
>>>>>End Processed Spectral Data<<<<<
