SpectraSuite Data File
++++++++++++++++++++++++++++++++++++
Date: Fri Oct 04 11:51:06 GMT-05:00 2013
User: price-jones
Dark Spectrum Present: No
Reference Spectrum Present: No
Number of Sampled Component Spectra: 1
Spectrometers: USB2+H05261
Integration Time (usec): 100000 (USB2+H05261)
Spectra Averaged: 1 (USB2+H05261)
Boxcar Smoothing: 0 (USB2+H05261)
Correct for Electrical Dark: No (USB2+H05261)
Strobe/Lamp Enabled: No (USB2+H05261)
Correct for Detector Non-linearity: No (USB2+H05261)
Correct for Stray Light: No (USB2+H05261)
Number of Pixels in Processed Spectrum: 2048
>>>>>Begin Processed Spectral Data<<<<<
365.73	0.00
365.92	0.00
366.12	0.00
366.32	0.00
366.52	0.00
366.72	0.00
366.91	0.00
367.11	0.00
367.31	0.00
367.51	0.00
367.70	0.00
367.90	0.00
368.10	0.00
368.30	0.00
368.49	0.00
368.69	0.00
368.89	0.00
369.09	0.00
369.28	0.00
369.48	0.00
369.68	0.00
369.87	0.00
370.07	0.00
370.27	0.00
370.47	0.00
370.66	7.02
370.86	35.11
371.06	46.81
371.25	126.39
371.45	18.72
371.65	77.24
371.84	0.00
372.04	18.72
372.24	23.41
372.44	88.94
372.63	98.30
372.83	72.56
373.03	60.85
373.22	9.36
373.42	107.66
373.62	72.56
373.81	100.64
374.01	126.39
374.21	114.69
374.40	58.51
374.60	74.90
374.79	84.26
374.99	86.60
375.19	58.51
375.38	124.05
375.58	135.75
375.78	107.66
375.97	110.01
376.17	135.75
376.37	175.54
376.56	74.90
376.76	53.83
376.95	119.37
377.15	35.11
377.35	119.37
377.54	67.88
377.74	51.49
377.93	95.96
378.13	114.69
378.33	79.58
378.52	14.04
378.72	79.58
378.91	56.17
379.11	44.47
379.31	105.32
379.50	81.92
379.70	65.54
379.89	88.94
380.09	70.22
380.28	14.04
380.48	107.66
380.68	110.01
380.87	46.81
381.07	93.62
381.26	107.66
381.46	126.39
381.65	126.39
381.85	119.37
382.04	145.11
382.24	86.60
382.43	114.69
382.63	53.83
382.83	32.77
383.02	110.01
383.22	81.92
383.41	63.19
383.61	95.96
383.80	138.09
384.00	67.88
384.19	72.56
384.39	95.96
384.58	23.41
384.78	65.54
384.97	102.98
385.17	124.05
385.36	58.51
385.56	102.98
385.75	58.51
385.95	70.22
386.14	126.39
386.34	105.32
386.53	67.88
386.72	35.11
386.92	117.03
387.11	145.11
387.31	58.51
387.50	28.09
387.70	88.94
387.89	110.01
388.09	53.83
388.28	112.35
388.48	79.58
388.67	86.60
388.86	37.45
389.06	37.45
389.25	65.54
389.45	58.51
389.64	88.94
389.84	177.88
390.03	95.96
390.22	77.24
390.42	107.66
390.61	65.54
390.81	18.72
391.00	77.24
391.19	63.19
391.39	131.07
391.58	77.24
391.78	133.41
391.97	138.09
392.16	70.22
392.36	70.22
392.55	156.82
392.75	117.03
392.94	39.79
393.13	56.17
393.33	88.94
393.52	98.30
393.71	124.05
393.91	93.62
394.10	53.83
394.29	35.11
394.49	110.01
394.68	91.28
394.88	102.98
395.07	91.28
395.26	93.62
395.46	88.94
395.65	124.05
395.84	98.30
396.04	91.28
396.23	77.24
396.42	28.09
396.62	49.15
396.81	95.96
397.00	105.32
397.19	67.88
397.39	131.07
397.58	124.05
397.77	98.30
397.97	84.26
398.16	79.58
398.35	152.13
398.55	110.01
398.74	58.51
398.93	128.73
399.12	110.01
399.32	91.28
399.51	145.11
399.70	58.51
399.90	124.05
400.09	77.24
400.28	170.86
400.47	74.90
400.67	154.48
400.86	107.66
401.05	107.66
401.24	140.43
401.44	95.96
401.63	42.13
401.82	98.30
402.01	51.49
402.21	154.48
402.40	140.43
402.59	124.05
402.78	37.45
402.97	39.79
403.17	56.17
403.36	117.03
403.55	98.30
403.74	72.56
403.93	28.09
404.13	74.90
404.32	98.30
404.51	72.56
404.70	35.11
404.89	51.49
405.09	124.05
405.28	149.79
405.47	88.94
405.66	128.73
405.85	135.75
406.05	156.82
406.24	102.98
406.43	135.75
406.62	117.03
406.81	126.39
407.00	117.03
407.20	149.79
407.39	65.54
407.58	72.56
407.77	140.43
407.96	102.98
408.15	124.05
408.34	21.06
408.54	145.11
408.73	70.22
408.92	131.07
409.11	102.98
409.30	93.62
409.49	93.62
409.68	128.73
409.87	105.32
410.07	35.11
410.26	49.15
410.45	98.30
410.64	107.66
410.83	98.30
411.02	70.22
411.21	177.88
411.40	121.71
411.59	117.03
411.78	180.22
411.98	208.31
412.17	112.35
412.36	65.54
412.55	100.64
412.74	201.29
412.93	124.05
413.12	124.05
413.31	110.01
413.50	124.05
413.69	133.41
413.88	156.82
414.07	58.51
414.26	138.09
414.45	84.26
414.64	133.41
414.83	124.05
415.02	86.60
415.22	88.94
415.41	138.09
415.60	65.54
415.79	126.39
415.98	60.85
416.17	117.03
416.36	175.54
416.55	91.28
416.74	91.28
416.93	212.99
417.12	67.88
417.31	180.22
417.50	145.11
417.69	175.54
417.88	105.32
418.07	65.54
418.26	91.28
418.45	114.69
418.64	189.58
418.83	133.41
419.02	93.62
419.21	67.88
419.39	149.79
419.58	49.15
419.77	91.28
419.96	105.32
420.15	177.88
420.34	53.83
420.53	121.71
420.72	177.88
420.91	53.83
421.10	67.88
421.29	16.38
421.48	166.18
421.67	107.66
421.86	74.90
422.05	74.90
422.24	119.37
422.43	138.09
422.61	65.54
422.80	110.01
422.99	98.30
423.18	91.28
423.37	177.88
423.56	114.69
423.75	77.24
423.94	131.07
424.13	91.28
424.32	84.26
424.50	91.28
424.69	131.07
424.88	166.18
425.07	93.62
425.26	81.92
425.45	126.39
425.64	93.62
425.83	72.56
426.01	163.84
426.20	88.94
426.39	161.50
426.58	37.45
426.77	93.62
426.96	119.37
427.15	114.69
427.33	72.56
427.52	95.96
427.71	114.69
427.90	110.01
428.09	63.19
428.28	100.64
428.46	128.73
428.65	110.01
428.84	182.56
429.03	152.13
429.22	58.51
429.40	67.88
429.59	72.56
429.78	145.11
429.97	63.19
430.16	14.04
430.34	79.58
430.53	110.01
430.72	91.28
430.91	107.66
431.10	105.32
431.28	77.24
431.47	81.92
431.66	110.01
431.85	60.85
432.03	74.90
432.22	173.20
432.41	93.62
432.60	180.22
432.79	79.58
432.97	107.66
433.16	72.56
433.35	79.58
433.54	114.69
433.72	135.75
433.91	65.54
434.10	53.83
434.28	93.62
434.47	70.22
434.66	110.01
434.85	161.50
435.03	107.66
435.22	196.60
435.41	147.45
435.59	124.05
435.78	42.13
435.97	81.92
436.16	161.50
436.34	91.28
436.53	58.51
436.72	124.05
436.90	217.67
437.09	170.86
437.28	161.50
437.46	56.17
437.65	189.58
437.84	117.03
438.02	126.39
438.21	163.84
438.40	126.39
438.58	11.70
438.77	72.56
438.96	110.01
439.14	126.39
439.33	79.58
439.52	93.62
439.70	84.26
439.89	177.88
440.08	88.94
440.26	81.92
440.45	163.84
440.63	79.58
440.82	102.98
441.01	140.43
441.19	128.73
441.38	180.22
441.57	152.13
441.75	126.39
441.94	84.26
442.12	152.13
442.31	86.60
442.50	121.71
442.68	241.08
442.87	112.35
443.05	152.13
443.24	93.62
443.43	147.45
443.61	159.16
443.80	149.79
443.98	105.32
444.17	93.62
444.35	124.05
444.54	145.11
444.73	138.09
444.91	173.20
445.10	170.86
445.28	163.84
445.47	152.13
445.65	53.83
445.84	100.64
446.02	86.60
446.21	133.41
446.39	142.77
446.58	114.69
446.77	114.69
446.95	105.32
447.14	133.41
447.32	194.26
447.51	149.79
447.69	98.30
447.88	184.90
448.06	175.54
448.25	128.73
448.43	95.96
448.62	49.15
448.80	142.77
448.99	159.16
449.17	81.92
449.36	95.96
449.54	191.92
449.73	140.43
449.91	133.41
450.10	124.05
450.28	140.43
450.46	161.50
450.65	138.09
450.83	79.58
451.02	81.92
451.20	74.90
451.39	152.13
451.57	77.24
451.76	173.20
451.94	107.66
452.13	154.48
452.31	117.03
452.49	168.52
452.68	163.84
452.86	49.15
453.05	147.45
453.23	149.79
453.42	79.58
453.60	110.01
453.78	95.96
453.97	44.47
454.15	88.94
454.34	110.01
454.52	81.92
454.70	142.77
454.89	140.43
455.07	180.22
455.26	170.86
455.44	107.66
455.62	121.71
455.81	117.03
455.99	135.75
456.17	121.71
456.36	133.41
456.54	77.24
456.73	145.11
456.91	166.18
457.09	163.84
457.28	166.18
457.46	152.13
457.64	152.13
457.83	77.24
458.01	163.84
458.19	159.16
458.38	84.26
458.56	173.20
458.74	163.84
458.93	196.60
459.11	187.24
459.29	128.73
459.48	147.45
459.66	212.99
459.84	135.75
460.03	262.14
460.21	163.84
460.39	156.82
460.57	196.60
460.76	154.48
460.94	131.07
461.12	191.92
461.31	124.05
461.49	182.56
461.67	159.16
461.85	133.41
462.04	145.11
462.22	596.84
462.40	159.16
462.59	81.92
462.77	74.90
462.95	110.01
463.13	163.84
463.32	107.66
463.50	180.22
463.68	168.52
463.86	126.39
464.05	152.13
464.23	198.95
464.41	175.54
464.59	93.62
464.78	63.19
464.96	86.60
465.14	205.97
465.32	107.66
465.50	51.49
465.69	173.20
465.87	184.90
466.05	191.92
466.23	110.01
466.41	121.71
466.60	74.90
466.78	180.22
466.96	145.11
467.14	175.54
467.32	191.92
467.51	112.35
467.69	88.94
467.87	100.64
468.05	145.11
468.23	156.82
468.41	187.24
468.60	182.56
468.78	243.42
468.96	138.09
469.14	133.41
469.32	58.51
469.50	145.11
469.69	149.79
469.87	182.56
470.05	114.69
470.23	124.05
470.41	110.01
470.59	147.45
470.77	124.05
470.95	159.16
471.14	112.35
471.32	110.01
471.50	133.41
471.68	105.32
471.86	128.73
472.04	187.24
472.22	156.82
472.40	138.09
472.58	147.45
472.77	152.13
472.95	102.98
473.13	201.29
473.31	220.01
473.49	166.18
473.67	147.45
473.85	105.32
474.03	112.35
474.21	110.01
474.39	196.60
474.57	161.50
474.75	180.22
474.93	149.79
475.12	107.66
475.30	117.03
475.48	210.65
475.66	84.26
475.84	128.73
476.02	217.67
476.20	215.33
476.38	147.45
476.56	184.90
476.74	140.43
476.92	173.20
477.10	100.64
477.28	161.50
477.46	170.86
477.64	147.45
477.82	138.09
478.00	95.96
478.18	135.75
478.36	145.11
478.54	182.56
478.72	147.45
478.90	98.30
479.08	131.07
479.26	173.20
479.44	205.97
479.62	147.45
479.80	191.92
479.98	159.16
480.16	140.43
480.34	100.64
480.52	79.58
480.70	95.96
480.88	124.05
481.06	196.60
481.24	72.56
481.41	168.52
481.59	140.43
481.77	161.50
481.95	159.16
482.13	205.97
482.31	112.35
482.49	140.43
482.67	182.56
482.85	229.37
483.03	135.75
483.21	161.50
483.39	182.56
483.57	140.43
483.74	184.90
483.92	145.11
484.10	112.35
484.28	177.88
484.46	210.65
484.64	110.01
484.82	177.88
485.00	117.03
485.18	70.22
485.35	177.88
485.53	161.50
485.71	170.86
485.89	161.50
486.07	170.86
486.25	203.63
486.43	196.60
486.61	227.03
486.78	121.71
486.96	175.54
487.14	107.66
487.32	180.22
487.50	189.58
487.68	198.95
487.85	133.41
488.03	159.16
488.21	180.22
488.39	119.37
488.57	152.13
488.75	140.43
488.92	416.62
489.10	110.01
489.28	187.24
489.46	175.54
489.64	224.69
489.81	128.73
489.99	147.45
490.17	194.26
490.35	201.29
490.53	170.86
490.70	166.18
490.88	191.92
491.06	135.75
491.24	173.20
491.41	184.90
491.59	231.71
491.77	238.73
491.95	177.88
492.13	170.86
492.30	121.71
492.48	238.73
492.66	264.48
492.84	248.10
493.01	217.67
493.19	117.03
493.37	194.26
493.54	201.29
493.72	229.37
493.90	135.75
494.08	194.26
494.25	135.75
494.43	182.56
494.61	217.67
494.79	189.58
494.96	205.97
495.14	224.69
495.32	212.99
495.49	117.03
495.67	154.48
495.85	180.22
496.02	163.84
496.20	236.39
496.38	182.56
496.55	208.31
496.73	182.56
496.91	161.50
497.09	175.54
497.26	163.84
497.44	152.13
497.62	105.32
497.79	166.18
497.97	128.73
498.14	159.16
498.32	149.79
498.50	161.50
498.67	74.90
498.85	138.09
499.03	187.24
499.20	208.31
499.38	161.50
499.56	180.22
499.73	238.73
499.91	236.39
500.08	234.05
500.26	210.65
500.44	112.35
500.61	252.78
500.79	161.50
500.97	154.48
501.14	264.48
501.32	163.84
501.49	203.63
501.67	220.01
501.84	203.63
502.02	194.26
502.20	273.84
502.37	191.92
502.55	140.43
502.72	208.31
502.90	238.73
503.07	210.65
503.25	121.71
503.43	140.43
503.60	175.54
503.78	163.84
503.95	212.99
504.13	182.56
504.30	220.01
504.48	210.65
504.65	271.50
504.83	208.31
505.01	224.69
505.18	173.20
505.36	177.88
505.53	208.31
505.71	152.13
505.88	252.78
506.06	194.26
506.23	142.77
506.41	194.26
506.58	177.88
506.76	161.50
506.93	243.42
507.11	170.86
507.28	168.52
507.46	210.65
507.63	241.08
507.81	175.54
507.98	177.88
508.16	229.37
508.33	201.29
508.50	163.84
508.68	252.78
508.85	140.43
509.03	138.09
509.20	142.77
509.38	196.60
509.55	224.69
509.73	220.01
509.90	264.48
510.08	187.24
510.25	154.48
510.42	168.52
510.60	224.69
510.77	173.20
510.95	229.37
511.12	196.60
511.30	191.92
511.47	248.10
511.64	222.35
511.82	131.07
511.99	248.10
512.17	222.35
512.34	222.35
512.51	220.01
512.69	184.90
512.86	159.16
513.04	175.54
513.21	212.99
513.38	222.35
513.56	222.35
513.73	191.92
513.90	194.26
514.08	135.75
514.25	117.03
514.43	152.13
514.60	205.97
514.77	189.58
514.95	56.17
515.12	168.52
515.29	241.08
515.47	175.54
515.64	217.67
515.81	187.24
515.99	229.37
516.16	184.90
516.33	208.31
516.51	198.95
516.68	142.77
516.85	203.63
517.03	194.26
517.20	257.46
517.37	283.20
517.54	194.26
517.72	184.90
517.89	191.92
518.06	138.09
518.24	224.69
518.41	278.52
518.58	250.44
518.75	217.67
518.93	184.90
519.10	198.95
519.27	147.45
519.45	194.26
519.62	208.31
519.79	222.35
519.96	147.45
520.14	245.76
520.31	220.01
520.48	248.10
520.65	210.65
520.83	276.18
521.00	201.29
521.17	201.29
521.34	173.20
521.52	259.80
521.69	168.52
521.86	257.46
522.03	184.90
522.20	142.77
522.38	131.07
522.55	234.05
522.72	234.05
522.89	294.91
523.07	238.73
523.24	212.99
523.41	187.24
523.58	201.29
523.75	234.05
523.92	198.95
524.10	203.63
524.27	149.79
524.44	187.24
524.61	196.60
524.78	152.13
524.96	182.56
525.13	173.20
525.30	203.63
525.47	220.01
525.64	138.09
525.81	198.95
525.98	191.92
526.16	177.88
526.33	159.16
526.50	124.05
526.67	238.73
526.84	124.05
527.01	159.16
527.18	194.26
527.36	194.26
527.53	210.65
527.70	208.31
527.87	208.31
528.04	262.14
528.21	205.97
528.38	255.12
528.55	154.48
528.72	231.71
528.89	236.39
529.07	126.39
529.24	224.69
529.41	222.35
529.58	198.95
529.75	250.44
529.92	227.03
530.09	187.24
530.26	159.16
530.43	201.29
530.60	131.07
530.77	138.09
530.94	215.33
531.11	222.35
531.28	142.77
531.46	177.88
531.63	166.18
531.80	177.88
531.97	187.24
532.14	278.52
532.31	271.50
532.48	138.09
532.65	124.05
532.82	173.20
532.99	241.08
533.16	152.13
533.33	210.65
533.50	166.18
533.67	170.86
533.84	187.24
534.01	266.82
534.18	187.24
534.35	231.71
534.52	196.60
534.69	264.48
534.86	110.01
535.03	81.92
535.20	234.05
535.37	198.95
535.54	194.26
535.71	234.05
535.88	255.12
536.05	180.22
536.22	201.29
536.38	152.13
536.55	252.78
536.72	191.92
536.89	210.65
537.06	156.82
537.23	234.05
537.40	194.26
537.57	196.60
537.74	156.82
537.91	142.77
538.08	168.52
538.25	205.97
538.42	119.37
538.59	252.78
538.75	168.52
538.92	210.65
539.09	217.67
539.26	245.76
539.43	196.60
539.60	191.92
539.77	196.60
539.94	205.97
540.11	217.67
540.28	262.14
540.44	227.03
540.61	215.33
540.78	161.50
540.95	236.39
541.12	234.05
541.29	208.31
541.46	208.31
541.62	264.48
541.79	238.73
541.96	252.78
542.13	222.35
542.30	220.01
542.47	250.44
542.63	187.24
542.80	175.54
542.97	250.44
543.14	182.56
543.31	210.65
543.48	173.20
543.64	231.71
543.81	262.14
543.98	220.01
544.15	187.24
544.32	234.05
544.48	276.18
544.65	173.20
544.82	248.10
544.99	201.29
545.16	278.52
545.32	196.60
545.49	222.35
545.66	198.95
545.83	278.52
546.00	245.76
546.16	70.22
546.33	152.13
546.50	198.95
546.67	212.99
546.83	170.86
547.00	168.52
547.17	170.86
547.34	187.24
547.50	257.46
547.67	290.23
547.84	161.50
548.00	255.12
548.17	210.65
548.34	227.03
548.51	252.78
548.67	189.58
548.84	210.65
549.01	257.46
549.18	203.63
549.34	222.35
549.51	241.08
549.68	170.86
549.84	255.12
550.01	257.46
550.18	276.18
550.34	259.80
550.51	205.97
550.68	287.89
550.84	212.99
551.01	229.37
551.18	255.12
551.34	152.13
551.51	163.84
551.68	236.39
551.84	266.82
552.01	168.52
552.18	175.54
552.34	229.37
552.51	203.63
552.68	166.18
552.84	191.92
553.01	133.41
553.18	184.90
553.34	138.09
553.51	156.82
553.67	175.54
553.84	217.67
554.01	259.80
554.17	229.37
554.34	234.05
554.51	168.52
554.67	243.42
554.84	208.31
555.00	161.50
555.17	222.35
555.33	276.18
555.50	238.73
555.67	278.52
555.83	124.05
556.00	166.18
556.16	348.74
556.33	210.65
556.50	173.20
556.66	198.95
556.83	182.56
556.99	159.16
557.16	177.88
557.32	196.60
557.49	138.09
557.65	154.48
557.82	278.52
557.98	147.45
558.15	252.78
558.32	131.07
558.48	227.03
558.65	154.48
558.81	245.76
558.98	152.13
559.14	173.20
559.31	224.69
559.47	189.58
559.64	161.50
559.80	140.43
559.97	184.90
560.13	184.90
560.30	208.31
560.46	154.48
560.63	224.69
560.79	229.37
560.96	220.01
561.12	189.58
561.29	231.71
561.45	177.88
561.61	175.54
561.78	285.55
561.94	180.22
562.11	222.35
562.27	208.31
562.44	166.18
562.60	297.25
562.77	196.60
562.93	269.16
563.10	304.27
563.26	217.67
563.42	262.14
563.59	229.37
563.75	163.84
563.92	175.54
564.08	229.37
564.24	203.63
564.41	271.50
564.57	166.18
564.74	203.63
564.90	163.84
565.07	215.33
565.23	255.12
565.39	238.73
565.56	163.84
565.72	161.50
565.88	86.60
566.05	217.67
566.21	191.92
566.38	248.10
566.54	196.60
566.70	168.52
566.87	210.65
567.03	187.24
567.19	175.54
567.36	224.69
567.52	159.16
567.68	203.63
567.85	215.33
568.01	243.42
568.17	166.18
568.34	215.33
568.50	220.01
568.66	133.41
568.83	327.68
568.99	189.58
569.15	273.84
569.32	189.58
569.48	177.88
569.64	194.26
569.81	191.92
569.97	252.78
570.13	215.33
570.30	133.41
570.46	100.64
570.62	189.58
570.78	145.11
570.95	220.01
571.11	222.35
571.27	250.44
571.43	177.88
571.60	241.08
571.76	107.66
571.92	255.12
572.09	198.95
572.25	224.69
572.41	142.77
572.57	187.24
572.74	229.37
572.90	145.11
573.06	243.42
573.22	222.35
573.38	262.14
573.55	250.44
573.71	222.35
573.87	208.31
574.03	168.52
574.20	168.52
574.36	248.10
574.52	224.69
574.68	198.95
574.84	252.78
575.01	222.35
575.17	243.42
575.33	189.58
575.49	182.56
575.65	187.24
575.82	177.88
575.98	308.95
576.14	100.64
576.30	210.65
576.46	161.50
576.62	212.99
576.79	231.71
576.95	187.24
577.11	175.54
577.27	189.58
577.43	278.52
577.59	212.99
577.75	248.10
577.92	142.77
578.08	187.24
578.24	252.78
578.40	276.18
578.56	222.35
578.72	264.48
578.88	285.55
579.04	220.01
579.21	182.56
579.37	234.05
579.53	138.09
579.69	177.88
579.85	121.71
580.01	180.22
580.17	145.11
580.33	222.35
580.49	102.98
580.65	203.63
580.82	191.92
580.98	273.84
581.14	182.56
581.30	241.08
581.46	182.56
581.62	241.08
581.78	224.69
581.94	259.80
582.10	177.88
582.26	138.09
582.42	217.67
582.58	217.67
582.74	205.97
582.90	135.75
583.06	189.58
583.22	184.90
583.38	149.79
583.54	212.99
583.70	194.26
583.86	212.99
584.02	198.95
584.18	184.90
584.34	208.31
584.50	194.26
584.66	234.05
584.82	140.43
584.98	180.22
585.14	222.35
585.30	236.39
585.46	177.88
585.62	229.37
585.78	191.92
585.94	255.12
586.10	252.78
586.26	180.22
586.42	184.90
586.58	140.43
586.74	152.13
586.90	210.65
587.06	175.54
587.22	283.20
587.38	145.11
587.54	205.97
587.70	177.88
587.86	161.50
588.02	177.88
588.18	222.35
588.34	231.71
588.49	65.54
588.65	133.41
588.81	81.92
588.97	149.79
589.13	138.09
589.29	135.75
589.45	170.86
589.61	187.24
589.77	217.67
589.93	112.35
590.08	187.24
590.24	182.56
590.40	262.14
590.56	215.33
590.72	163.84
590.88	173.20
591.04	177.88
591.20	163.84
591.35	210.65
591.51	142.77
591.67	177.88
591.83	163.84
591.99	138.09
592.15	124.05
592.31	245.76
592.46	170.86
592.62	121.71
592.78	177.88
592.94	220.01
593.10	124.05
593.26	147.45
593.41	98.30
593.57	152.13
593.73	152.13
593.89	241.08
594.05	177.88
594.20	173.20
594.36	231.71
594.52	131.07
594.68	191.92
594.84	110.01
594.99	152.13
595.15	131.07
595.31	212.99
595.47	208.31
595.62	201.29
595.78	231.71
595.94	121.71
596.10	168.52
596.25	210.65
596.41	187.24
596.57	198.95
596.73	135.75
596.88	168.52
597.04	175.54
597.20	184.90
597.36	117.03
597.51	107.66
597.67	173.20
597.83	112.35
597.99	131.07
598.14	205.97
598.30	212.99
598.46	231.71
598.61	170.86
598.77	180.22
598.93	184.90
599.09	189.58
599.24	205.97
599.40	163.84
599.56	81.92
599.71	180.22
599.87	161.50
600.03	212.99
600.18	194.26
600.34	212.99
600.50	215.33
600.65	133.41
600.81	194.26
600.97	196.60
601.12	180.22
601.28	229.37
601.44	142.77
601.59	128.73
601.75	201.29
601.91	189.58
602.06	168.52
602.22	196.60
602.37	159.16
602.53	180.22
602.69	234.05
602.84	217.67
603.00	210.65
603.16	203.63
603.31	234.05
603.47	238.73
603.62	135.75
603.78	159.16
603.94	191.92
604.09	201.29
604.25	205.97
604.40	250.44
604.56	149.79
604.71	264.48
604.87	217.67
605.03	196.60
605.18	203.63
605.34	180.22
605.49	198.95
605.65	229.37
605.80	81.92
605.96	121.71
606.12	147.45
606.27	198.95
606.43	215.33
606.58	126.39
606.74	243.42
606.89	168.52
607.05	187.24
607.20	100.64
607.36	168.52
607.51	128.73
607.67	74.90
607.82	220.01
607.98	191.92
608.13	205.97
608.29	163.84
608.44	203.63
608.60	170.86
608.75	229.37
608.91	126.39
609.06	229.37
609.22	154.48
609.37	145.11
609.53	135.75
609.68	159.16
609.84	184.90
609.99	152.13
610.15	215.33
610.30	208.31
610.46	187.24
610.61	212.99
610.76	107.66
610.92	224.69
611.07	161.50
611.23	271.50
611.38	224.69
611.54	212.99
611.69	119.37
611.84	161.50
612.00	184.90
612.15	180.22
612.31	152.13
612.46	114.69
612.62	175.54
612.77	205.97
612.92	278.52
613.08	231.71
613.23	189.58
613.39	145.11
613.54	110.01
613.69	133.41
613.85	234.05
614.00	208.31
614.15	95.96
614.31	117.03
614.46	161.50
614.62	156.82
614.77	182.56
614.92	154.48
615.08	184.90
615.23	205.97
615.38	126.39
615.54	238.73
615.69	194.26
615.84	44.47
616.00	278.52
616.15	140.43
616.30	128.73
616.46	131.07
616.61	159.16
616.76	152.13
616.92	198.95
617.07	187.24
617.22	227.03
617.37	168.52
617.53	294.91
617.68	182.56
617.83	196.60
617.99	173.20
618.14	180.22
618.29	182.56
618.45	187.24
618.60	154.48
618.75	140.43
618.90	133.41
619.06	159.16
619.21	250.44
619.36	191.92
619.51	133.41
619.67	154.48
619.82	147.45
619.97	187.24
620.12	201.29
620.28	173.20
620.43	156.82
620.58	203.63
620.73	159.16
620.89	215.33
621.04	170.86
621.19	243.42
621.34	180.22
621.49	191.92
621.65	145.11
621.80	114.69
621.95	198.95
622.10	180.22
622.25	159.16
622.41	100.64
622.56	149.79
622.71	184.90
622.86	243.42
623.01	203.63
623.16	184.90
623.32	203.63
623.47	147.45
623.62	182.56
623.77	140.43
623.92	128.73
624.07	149.79
624.23	222.35
624.38	180.22
624.53	224.69
624.68	224.69
624.83	166.18
624.98	152.13
625.13	159.16
625.29	159.16
625.44	166.18
625.59	145.11
625.74	168.52
625.89	191.92
626.04	133.41
626.19	168.52
626.34	133.41
626.49	220.01
626.65	163.84
626.80	128.73
626.95	121.71
627.10	191.92
627.25	154.48
627.40	156.82
627.55	184.90
627.70	135.75
627.85	187.24
628.00	56.17
628.15	161.50
628.30	168.52
628.45	173.20
628.60	135.75
628.76	168.52
628.91	220.01
629.06	86.60
629.21	77.24
629.36	184.90
629.51	81.92
629.66	166.18
629.81	166.18
629.96	133.41
630.11	133.41
630.26	191.92
630.41	187.24
630.56	161.50
630.71	126.39
630.86	159.16
631.01	124.05
631.16	133.41
631.31	241.08
631.46	184.90
631.61	117.03
631.76	145.11
631.91	161.50
632.06	201.29
632.21	182.56
632.36	241.08
632.51	159.16
632.66	177.88
632.81	170.86
632.96	91.28
633.10	126.39
633.25	98.30
633.40	142.77
633.55	238.73
633.70	154.48
633.85	121.71
634.00	152.13
634.15	173.20
634.30	93.62
634.45	196.60
634.60	142.77
634.75	168.52
634.90	74.90
635.05	156.82
635.19	175.54
635.34	95.96
635.49	147.45
635.64	114.69
635.79	198.95
635.94	135.75
636.09	215.33
636.24	184.90
636.39	114.69
636.53	273.84
636.68	110.01
636.83	159.16
636.98	159.16
637.13	161.50
637.28	149.79
637.43	140.43
637.57	98.30
637.72	224.69
637.87	205.97
638.02	147.45
638.17	98.30
638.32	182.56
638.46	140.43
638.61	208.31
638.76	98.30
638.91	135.75
639.06	163.84
639.20	102.98
639.35	196.60
639.50	102.98
639.65	229.37
639.80	198.95
639.94	184.90
640.09	180.22
640.24	236.39
640.39	191.92
640.54	184.90
640.68	149.79
640.83	196.60
640.98	166.18
641.13	98.30
641.27	100.64
641.42	21.06
641.57	215.33
641.72	121.71
641.86	110.01
642.01	187.24
642.16	128.73
642.31	121.71
642.45	168.52
642.60	128.73
642.75	163.84
642.90	102.98
643.04	131.07
643.19	140.43
643.34	100.64
643.48	135.75
643.63	46.81
643.78	161.50
643.93	142.77
644.07	166.18
644.22	187.24
644.37	119.37
644.51	119.37
644.66	147.45
644.81	128.73
644.95	159.16
645.10	159.16
645.25	135.75
645.39	147.45
645.54	124.05
645.69	105.32
645.83	187.24
645.98	152.13
646.13	166.18
646.27	105.32
646.42	91.28
646.57	100.64
646.71	128.73
646.86	133.41
647.00	138.09
647.15	159.16
647.30	154.48
647.44	201.29
647.59	149.79
647.74	182.56
647.88	173.20
648.03	142.77
648.17	187.24
648.32	128.73
648.47	168.52
648.61	220.01
648.76	173.20
648.90	124.05
649.05	124.05
649.20	142.77
649.34	135.75
649.49	98.30
649.63	95.96
649.78	154.48
649.92	70.22
650.07	102.98
650.21	133.41
650.36	112.35
650.51	147.45
650.65	224.69
650.80	67.88
650.94	107.66
651.09	135.75
651.23	86.60
651.38	156.82
651.52	67.88
651.67	121.71
651.81	152.13
651.96	173.20
652.10	168.52
652.25	198.95
652.39	142.77
652.54	222.35
652.68	142.77
652.83	138.09
652.97	154.48
653.12	105.32
653.26	180.22
653.41	110.01
653.55	170.86
653.70	121.71
653.84	84.26
653.99	149.79
654.13	159.16
654.27	133.41
654.42	138.09
654.56	105.32
654.71	184.90
654.85	170.86
655.00	102.98
655.14	93.62
655.29	117.03
655.43	145.11
655.57	198.95
655.72	70.22
655.86	131.07
656.01	184.90
656.15	112.35
656.30	173.20
656.44	133.41
656.58	105.32
656.73	229.37
656.87	112.35
657.01	95.96
657.16	159.16
657.30	100.64
657.45	177.88
657.59	159.16
657.73	140.43
657.88	147.45
658.02	212.99
658.16	166.18
658.31	184.90
658.45	194.26
658.60	142.77
658.74	173.20
658.88	149.79
659.03	95.96
659.17	88.94
659.31	63.19
659.46	170.86
659.60	187.24
659.74	161.50
659.89	117.03
660.03	114.69
660.17	210.65
660.32	222.35
660.46	224.69
660.60	194.26
660.74	107.66
660.89	107.66
661.03	77.24
661.17	100.64
661.32	159.16
661.46	112.35
661.60	114.69
661.74	128.73
661.89	194.26
662.03	166.18
662.17	203.63
662.31	105.32
662.46	138.09
662.60	95.96
662.74	88.94
662.88	163.84
663.03	142.77
663.17	147.45
663.31	91.28
663.45	170.86
663.60	131.07
663.74	182.56
663.88	133.41
664.02	133.41
664.17	100.64
664.31	100.64
664.45	131.07
664.59	149.79
664.73	107.66
664.88	145.11
665.02	152.13
665.16	187.24
665.30	217.67
665.44	107.66
665.59	117.03
665.73	142.77
665.87	117.03
666.01	135.75
666.15	154.48
666.29	79.58
666.44	189.58
666.58	145.11
666.72	154.48
666.86	177.88
667.00	152.13
667.14	107.66
667.28	140.43
667.43	133.41
667.57	112.35
667.71	88.94
667.85	131.07
667.99	210.65
668.13	112.35
668.27	175.54
668.41	140.43
668.56	133.41
668.70	182.56
668.84	110.01
668.98	110.01
669.12	105.32
669.26	131.07
669.40	159.16
669.54	105.32
669.68	119.37
669.82	131.07
669.96	161.50
670.10	133.41
670.25	149.79
670.39	177.88
670.53	156.82
670.67	128.73
670.81	81.92
670.95	114.69
671.09	184.90
671.23	220.01
671.37	203.63
671.51	107.66
671.65	152.13
671.79	154.48
671.93	107.66
672.07	166.18
672.21	173.20
672.35	163.84
672.49	180.22
672.63	208.31
672.77	203.63
672.91	173.20
673.05	107.66
673.19	119.37
673.33	86.60
673.47	107.66
673.61	128.73
673.75	88.94
673.89	177.88
674.03	170.86
674.17	135.75
674.31	121.71
674.45	128.73
674.59	180.22
674.73	93.62
674.87	159.16
675.01	124.05
675.15	175.54
675.29	266.82
675.43	212.99
675.56	140.43
675.70	77.24
675.84	154.48
675.98	77.24
676.12	84.26
676.26	42.13
676.40	79.58
676.54	51.49
676.68	168.52
676.82	145.11
676.96	119.37
677.10	147.45
677.23	63.19
677.37	93.62
677.51	124.05
677.65	205.97
677.79	84.26
677.93	105.32
678.07	154.48
678.21	110.01
678.34	107.66
678.48	105.32
678.62	166.18
678.76	98.30
678.90	88.94
679.04	177.88
679.18	128.73
679.31	91.28
679.45	93.62
679.59	140.43
679.73	210.65
679.87	114.69
680.00	112.35
680.14	98.30
680.28	173.20
680.42	67.88
680.56	138.09
680.70	98.30
680.83	117.03
680.97	117.03
681.11	37.45
681.25	161.50
681.39	131.07
681.52	117.03
681.66	175.54
681.80	117.03
681.94	138.09
682.07	88.94
682.21	142.77
682.35	149.79
682.49	105.32
682.62	208.31
682.76	124.05
682.90	124.05
683.04	72.56
683.17	65.54
683.31	140.43
683.45	161.50
683.59	189.58
683.72	131.07
683.86	72.56
684.00	86.60
684.13	161.50
684.27	147.45
684.41	102.98
684.55	119.37
684.68	93.62
684.82	124.05
684.96	145.11
685.09	140.43
685.23	74.90
685.37	112.35
685.50	105.32
685.64	67.88
685.78	112.35
685.91	166.18
686.05	147.45
686.19	187.24
686.32	161.50
686.46	145.11
686.60	42.13
686.73	191.92
686.87	159.16
687.01	117.03
687.14	32.77
687.28	102.98
687.42	114.69
687.55	119.37
687.69	140.43
687.82	112.35
687.96	67.88
688.10	114.69
688.23	128.73
688.37	170.86
688.50	126.39
688.64	135.75
688.78	86.60
688.91	51.49
689.05	77.24
689.18	117.03
689.32	67.88
689.46	159.16
689.59	138.09
689.73	205.97
689.86	88.94
690.00	84.26
690.13	79.58
690.27	128.73
690.41	67.88
690.54	135.75
690.68	98.30
690.81	166.18
690.95	100.64
691.08	149.79
691.22	91.28
691.35	72.56
691.49	88.94
691.62	74.90
691.76	77.24
691.89	135.75
692.03	161.50
692.16	126.39
692.30	142.77
692.43	70.22
692.57	102.98
692.70	117.03
692.84	86.60
692.97	46.81
693.11	105.32
693.24	77.24
693.38	102.98
693.51	100.64
693.65	140.43
693.78	114.69
693.92	133.41
694.05	105.32
694.19	58.51
694.32	53.83
694.45	135.75
694.59	28.09
694.72	53.83
694.86	44.47
694.99	105.32
695.13	159.16
695.26	112.35
695.39	194.26
695.53	156.82
695.66	100.64
695.80	140.43
695.93	126.39
696.07	23.41
696.20	117.03
696.33	74.90
696.47	121.71
696.60	84.26
696.73	119.37
696.87	56.17
697.00	173.20
697.14	142.77
697.27	72.56
697.40	205.97
697.54	100.64
697.67	145.11
697.80	98.30
697.94	117.03
698.07	44.47
698.21	67.88
698.34	81.92
698.47	30.43
698.61	32.77
698.74	110.01
698.87	112.35
699.01	140.43
699.14	128.73
699.27	67.88
699.40	159.16
699.54	63.19
699.67	42.13
699.80	88.94
699.94	121.71
700.07	56.17
700.20	133.41
700.34	93.62
700.47	107.66
700.60	74.90
700.73	154.48
700.87	161.50
701.00	112.35
701.13	107.66
701.26	86.60
701.40	91.28
701.53	119.37
701.66	56.17
701.79	72.56
701.93	23.41
702.06	128.73
702.19	131.07
702.32	126.39
702.46	56.17
702.59	105.32
702.72	86.60
702.85	175.54
702.99	100.64
703.12	154.48
703.25	133.41
703.38	95.96
703.51	152.13
703.65	65.54
703.78	84.26
703.91	95.96
704.04	161.50
704.17	63.19
704.31	102.98
704.44	79.58
704.57	93.62
704.70	39.79
704.83	65.54
704.96	147.45
705.10	117.03
705.23	145.11
>>>>>End Processed Spectral Data<<<<<
